Timestamp,ECG Data
4,1924
7,1936
11,1935
15,1935
19,1925
23,1931
27,1939
31,1937
35,1936
39,1937
43,1937
47,1936
51,1951
55,1983
59,2005
63,2014
67,2014
71,2014
75,2022
79,2021
83,2000
87,1988
91,1984
95,1970
99,1951
103,1943
107,1947
111,1955
115,1955
119,1950
123,1966
127,1973
131,1966
135,1957
139,1953
143,1956
147,1956
151,1953
155,1958
159,1957
163,1911
167,1805
171,1719
175,1831
179,2274
183,2992
187,4095
191,4095
195,4095
199,3889
203,2927
207,2304
211,2016
215,1957
219,1952
223,1949
227,1935
231,1899
235,1872
239,1862
243,1855
247,1854
251,1840
255,1843
259,1853
263,1856
267,1856
271,1858
275,1870
279,1866
283,1867
287,1858
291,1874
295,1887
299,1895
303,1885
307,1893
311,1907
315,1905
319,1907
323,1913
327,1924
331,1929
335,1926
339,1936
343,1947
347,1946
351,1947
355,1966
359,1978
363,1989
367,1927
371,2010
375,2000
379,2004
383,2018
387,2043
391,2070
395,2081
399,2070
403,2101
407,2112
411,2130
415,2159
419,2137
423,2148
427,2166
431,2178
435,2177
439,2186
443,2195
447,2186
451,2162
455,2145
459,2103
463,2075
467,2023
471,1982
475,1951
479,1931
483,1891
487,1872
491,1861
495,1862
499,1854
503,1844
507,1843
511,1850
515,1838
519,1834
523,1842
527,1847
531,1851
535,1840
539,1852
543,1858
547,1865
551,1851
555,1856
559,1867
563,1872
567,1868
571,1872
575,1873
579,1875
583,1876
587,1875
591,1880
595,1887
599,1882
603,1874
607,1882
611,1890
615,1894
619,1890
623,1895
627,1893
631,1892
635,1887
639,1889
643,1891
647,1899
651,1890
655,1899
659,1906
663,1903
667,1891
671,1891
675,1909
679,1913
683,1901
687,1903
691,1905
695,1904
699,1901
703,1904
707,1917
711,1911
715,1904
719,1903
723,1905
727,1917
731,1909
735,1901
739,1904
743,1914
747,1918
751,1915
755,1911
759,1919
763,1925
767,1917
771,1917
775,1921
779,1931
783,1921
787,1923
791,1934
795,1936
799,1930
803,1927
807,1931
811,1942
815,1936
819,1936
823,1941
827,1951
831,1940
835,1938
839,1941
843,1951
847,1958
851,1945
855,1943
859,1953
863,1955
867,1950
871,1947
875,1951
879,1951
883,1951
887,1965
891,1997
895,2021
899,2021
903,2011
907,2027
911,2031
915,2026
919,2002
923,1993
927,1993
931,1984
935,1962
939,1951
943,1955
947,1958
951,1947
955,1949
959,1967
963,1968
967,1968
971,1965
975,1966
979,1957
983,1947
987,1955
991,1970
995,1973
999,1942
1003,1863
1007,1799
1011,1822
1015,2064
1019,2557
1023,3285
1027,4095
1031,4095
1035,3468
1039,2736
1043,2224
1047,1994
1051,1947
1055,1967
1059,1985
1063,1977
1067,1942
1071,1922
1075,1915
1079,1904
1083,1891
1087,1883
1091,1889
1095,1888
1099,1892
1103,1894
1107,1905
1111,1910
1115,1906
1119,1904
1123,1913
1127,1927
1131,1930
1135,1932
1139,1936
1143,1945
1147,1949
1151,1941
1155,1957
1159,1968
1163,1968
1167,1954
1171,1967
1175,1987
1179,1998
1183,1995
1187,1994
1191,2011
1195,2021
1199,2031
1203,2032
1207,2043
1211,2061
1215,2066
1219,2069
1223,2093
1227,2107
1231,2112
1235,2112
1239,2123
1243,2145
1247,2144
1251,2144
1255,2149
1259,2166
1263,2176
1267,2175
1271,2177
1275,2187
1279,2190
1283,2175
1287,2157
1291,2128
1295,2108
1299,2066
1303,2020
1307,1991
1311,1963
1315,1936
1319,1899
1323,1892
1327,1895
1331,1867
1335,1854
1339,1867
1343,1847
1347,1853
1351,1853
1355,1845
1359,1856
1363,1854
1367,1853
1371,1845
1375,1851
1379,1854
1383,1854
1387,1859
1391,1872
1395,1879
1399,1869
1403,1856
1407,1872
1411,1874
1415,1875
1419,1871
1423,1882
1427,1891
1431,1891
1435,1886
1439,1893
1443,1893
1447,1901
1451,1894
1455,1893
1459,1895
1463,1895
1467,1898
1471,1895
1475,1899
1479,1904
1483,1893
1487,1889
1491,1895
1495,1904
1499,1901
1503,1893
1507,1897
1511,1901
1515,1903
1519,1898
1523,1897
1527,1901
1531,1897
1535,1893
1539,1894
1543,1904
1547,1901
1551,1891
1555,1888
1559,1899
1563,1906
1567,1902
1571,1897
1575,1906
1579,1904
1583,1901
1587,1889
1591,1909
1595,1913
1599,1915
1603,1904
1607,1914
1611,1917
1615,1918
1619,1921
1623,1923
1627,1921
1631,1919
1635,1906
1639,1911
1643,1934
1647,1936
1651,1930
1655,1922
1659,1929
1663,1942
1667,1957
1671,1970
1675,1983
1679,1990
1683,1997
1687,1999
1691,1998
1695,1997
1699,1978
1703,1954
1707,1957
1711,1946
1715,1931
1719,1921
1723,1922
1727,1929
1731,1936
1735,1935
1739,1936
1743,1939
1747,1937
1751,1936
1755,1933
1759,1942
1763,1939
1767,1936
1771,1940
1775,1933
1779,1880
1783,1790
1787,1776
1791,1955
1795,2381
1799,2989
1803,3781
1807,4077
1811,3472
1815,2807
1819,2275
1823,2012
1827,1938
1831,1948
1835,1943
1839,1937
1843,1931
1847,1909
1851,1892
1855,1875
1859,1873
1863,1879
1867,1869
1871,1871
1875,1873
1879,1877
1883,1876
1887,1879
1891,1891
1895,1897
1899,1897
1903,1898
1907,1907
1911,1920
1915,1925
1919,1923
1923,1930
1927,1936
1931,1935
1935,1932
1939,1935
1943,1946
1947,1954
1951,1951
1955,1958
1959,1970
1963,1971
1967,1973
1971,1983
1975,1995
1979,2006
1983,2006
1987,2022
1991,2032
1995,2053
1999,2062
2003,2067
2007,2086
2011,2102
2015,2115
2019,2119
2023,2131
2027,2141
2031,2141
2035,2144
2039,2156
2043,2164
2047,2170
2051,2178
2055,2176
2059,2173
2063,2156
2067,2125
2071,2085
2075,2058
2079,2014
2083,1968
2087,1936
2091,1910
2095,1893
2099,1872
2103,1847
2107,1840
2111,1838
2115,1830
2119,1823
2123,1826
2127,1836
2131,1830
2135,1827
2139,1831
2143,1838
2147,1839
2151,1840
2155,1834
2159,1840
2163,1845
2167,1840
2171,1840
2175,1846
2179,1856
2183,1855
2187,1850
2191,1855
2195,1866
2199,1856
2203,1856
2207,1862
2211,1871
2215,1863
2219,1871
2223,1885
2227,1883
2231,1876
2235,1853
2239,1873
2243,1877
2247,1904
2251,1874
2255,1869
2259,1873
2263,1859
2267,1911
2271,1871
2275,1875
2279,1882
2283,1872
2287,1873
2291,1877
2295,1888
2299,1886
2303,1889
2307,1886
2311,1891
2315,1885
2319,1878
2323,1889
2327,1891
2331,1895
2335,1889
2339,1898
2343,1901
2347,1904
2351,1896
2355,1893
2359,1902
2363,1904
2367,1893
2371,1895
2375,1911
2379,1915
2383,1905
2387,1904
2391,1911
2395,1920
2399,1911
2403,1903
2407,1915
2411,1917
2415,1917
2419,1903
2423,1914
2427,1926
2431,1929
2435,1923
2439,1920
2443,1923
2447,1949
2451,1968
2455,1981
2459,1989
2463,2000
2467,1997
2471,1989
2475,1995
2479,1990
2483,1968
2487,1955
2491,1952
2495,1936
2499,1924
2503,1925
2507,1927
2511,1935
2515,1933
2519,1924
2523,1932
2527,1936
2531,1936
2535,1931
2539,1941
2543,1941
2547,1940
2551,1939
2555,1933
2559,1883
2563,1777
2567,1723
2571,1863
2575,2362
2579,3106
2583,4095
2587,4095
2591,4095
2595,3909
2599,2949
2603,2297
2607,2002
2611,1936
2615,1937
2619,1934
2623,1910
2627,1892
2631,1859
2635,1840
2639,1832
2643,1835
2647,1830
2651,1820
2655,1825
2659,1840
2663,1843
2667,1848
2671,1841
2675,1853
2679,1854
2683,1855
2687,1854
2691,1870
2695,1879
2699,1879
2703,1872
2707,1879
2711,1890
2715,1893
2719,1890
2723,1902
2727,1909
2731,1910
2735,1906
2739,1913
2743,1930
2747,1936
2751,1935
2755,1941
2759,1959
2763,1969
2767,1969
2771,1984
2775,1995
2779,2009
2783,2022
2787,2028
2791,2055
2795,2074
2799,2082
2803,2093
2807,2112
2811,2123
2815,2131
2819,2128
2823,2149
2827,2160
2831,2160
2835,2160
2839,2160
2843,2158
2847,2134
2851,2096
2855,2061
2859,2030
2863,1991
2867,1950
2871,1921
2875,1905
2879,1883
2883,1863
2887,1844
2891,1842
2895,1843
2899,1840
2903,1835
2907,1840
2911,1840
2915,1840
2919,1840
2923,1843
2927,1851
2931,1854
2935,1854
2939,1847
2943,1856
2947,1855
2951,1852
2955,1855
2959,1861
2963,1866
2967,1858
2971,1870
2975,1874
2979,1874
2983,1869
2987,1871
2991,1873
2995,1883
2999,1881
3003,1875
3007,1888
3011,1895
3015,1890
3019,1873
3023,1891
3027,1902
3031,1901
3035,1895
3039,1897
3043,1904
3047,1906
3051,1903
3055,1901
3059,1907
3063,1907
3067,1904
3071,1902
3075,1903
3079,1907
3083,1904
3087,1901
3091,1906
3095,1911
3099,1903
3103,1904
3107,1904
3111,1911
3115,1906
3119,1904
3123,1918
3127,1917
3131,1920
3135,1914
3139,1914
3143,1905
3147,1920
3151,1919
3155,1917
3159,1925
3163,1931
3167,1933
3171,1914
3175,1910
3179,1931
3183,1926
3187,1920
3191,1937
3195,1975
3199,1930
3203,1931
3207,1931
3211,1937
3215,1936
3219,1933
3223,1936
3227,1939
3231,1942
3235,1935
3239,1939
3243,1946
3247,1951
3251,1942
3255,1936
3259,1940
3263,1962
3267,1982
3271,2000
3275,2023
3279,2027
3283,2032
3287,2024
3291,2029
3295,2023
3299,2002
3303,1995
3307,1982
3311,1969
3315,1956
3319,1952
3323,1957
3327,1963
3331,1954
3335,1948
3339,1957
3343,1964
3347,1959
3351,1953
3355,1949
3359,1956
3363,1964
3367,1955
3371,1953
3375,1933
3379,1840
3383,1725
3387,1746
3391,2119
3395,2833
3399,3966
3403,4095
3407,4095
3411,4095
3415,3938
3419,2896
3423,2256
3427,1976
3431,1920
3435,1915
3439,1918
3443,1907
3447,1877
3451,1845
3455,1833
3459,1829
3463,1822
3467,1813
3471,1809
3475,1822
3479,1825
3483,1819
3487,1824
3491,1831
3495,1845
3499,1847
3503,1840
3507,1850
3511,1855
3515,1861
3519,1858
3523,1861
3527,1871
3531,1872
3535,1872
3539,1881
3543,1891
3547,1892
3551,1902
3555,1902
3559,1907
3563,1911
3567,1907
3571,1917
3575,1930
3579,1937
3583,1942
3587,1949
3591,1970
3595,1987
3599,2000
3603,2010
3607,2032
3611,2053
3615,2062
3619,2067
3623,2087
3627,2102
3631,2112
3635,2119
3639,2131
3643,2150
3647,2161
3651,2161
3655,2165
3659,2167
3663,2155
3667,2129
3671,2092
3675,2064
3679,2023
3683,1986
3687,1951
3691,1927
3695,1901
3699,1873
3703,1850
3707,1841
3711,1840
3715,1839
3719,1827
3723,1827
3727,1837
3731,1838
3735,1834
3739,1837
3743,1845
3747,1847
3751,1841
3755,1843
3759,1853
3763,1857
3767,1856
3771,1853
3775,1856
3779,1861
3783,1865
3787,1849
3791,1859
3795,1867
3799,1861
3803,1861
3807,1872
3811,1872
3815,1872
3819,1867
3823,1871
3827,1877
3831,1875
3835,1871
3839,1872
3843,1877
3847,1877
3851,1872
3855,1872
3859,1887
3863,1891
3867,1882
3871,1874
3875,1887
3879,1892
3883,1885
3887,1883
3891,1893
3895,1897
3899,1893
3903,1891
3907,1904
3911,1904
3915,1904
3919,1899
3923,1909
3927,1907
3931,1904
3935,1896
3939,1903
3943,1918
3947,1911
3951,1905
3955,1904
3959,1910
3963,1919
3967,1906
3971,1905
3975,1915
3979,1921
3983,1916
3987,1917
3991,1920
3995,1931
3999,1921
4003,1919
4007,1927
4011,1927
4015,1926
4019,1923
4023,1926
4027,1936
4031,1921
4035,1925
4039,1921
4043,1939
4047,1943
4051,1931
4055,1934
4059,1943
4063,1939
4067,1932
4071,1938
4075,1935
4079,1900
4083,1938
4087,1968
4091,1958
4095,1935
4099,1937
4103,1948
4107,1981
4111,2005
4115,2005
4119,2007
4123,2031
4127,2027
4131,2029
4135,2005
4139,1999
4143,1995
4147,1988
4151,1965
4155,1953
4159,1954
4163,1961
4167,1951
4171,1951
4175,1952
4179,1957
4183,1951
4187,1941
4191,1953
4195,1958
4199,1959
4203,1950
4207,1957
4211,1967
4215,1948
4219,1886
4223,1767
4227,1698
4231,1835
4235,2370
4239,3226
4243,4095
4247,4095
4251,4095
4255,4095
4259,3502
4263,2614
4267,2096
4271,1918
4275,1914
4279,1925
4283,1901
4287,1873
4291,1851
4295,1839
4299,1822
4303,1807
4307,1808
4311,1809
4315,1808
4319,1807
4323,1818
4327,1827
4331,1833
4335,1833
4339,1840
4343,1854
4347,1849
4351,1847
4355,1855
4359,1869
4363,1872
4367,1869
4371,1866
4375,1872
4379,1877
4383,1879
4387,1882
4391,1891
4395,1906
4399,1904
4403,1911
4407,1922
4411,1934
4415,1927
4419,1936
4423,1947
4427,1968
4431,1971
4435,1973
4439,1984
4443,2003
4447,2018
4451,2032
4455,2047
4459,2074
4463,2089
4467,2096
4471,2107
4475,2127
4479,2139
4483,2144
4487,2149
4491,2171
4495,2185
4499,2179
4503,2160
4507,2145
4511,2123
4515,2087
4519,2040
4523,2005
4527,1971
4531,1936
4535,1893
4539,1863
4543,1858
4547,1840
4551,1828
4555,1821
4559,1823
4563,1818
4567,1808
4571,1810
4575,1821
4579,1827
4583,1825
4587,1822
4591,1827
4595,1838
4599,1834
4603,1834
4607,1839
4611,1846
4615,1841
4619,1837
4623,1843
4627,1855
4631,1841
4635,1845
4639,1839
4643,1854
4647,1855
4651,1851
4655,1859
4659,1861
4663,1867
4667,1859
4671,1857
4675,1870
4679,1876
4683,1863
4687,1863
4691,1869
4695,1874
4699,1871
4703,1871
4707,1876
4711,1886
4715,1879
4719,1879
4723,1883
4727,1890
4731,1879
4735,1876
4739,1879
4743,1887
4747,1888
4751,1889
4755,1881
4759,1885
4763,1889
4767,1885
4771,1890
4775,1901
4779,1899
4783,1889
4787,1890
4791,1894
4795,1904
4799,1898
4803,1889
4807,1902
4811,1904
4815,1903
4819,1904
4823,1906
4827,1914
4831,1910
4835,1904
4839,1910
4843,1915
4847,1914
4851,1907
4855,1909
4859,1929
4863,1921
4867,1913
4871,1908
4875,1920
4879,1919
4883,1919
4887,1917
4891,1921
4895,1921
4899,1920
4903,1912
4907,1920
4911,1922
4915,1922
4919,1920
4923,1928
4927,1939
4931,1937
4935,1934
4939,1939
4943,1949
4947,1947
4951,1938
4955,1953
4959,1984
4963,2000
4967,2003
4971,2005
4975,2019
4979,2018
4983,2007
4987,1989
4991,1987
4995,1986
4999,1973
5003,1957
5007,1963
5011,1937
5015,1936
5019,1933
5023,1945
5027,1948
5031,1942
5035,1936
5039,1959
5043,1933
5047,1939
5051,1962
5055,1934
5059,1949
5063,1952
5067,1932
5071,1859
5075,1760
5079,1722
5083,1910
5087,2454
5091,3297
5095,4095
5099,4095
5103,4095
5107,3603
5111,2726
5115,2182
5119,1968
5123,1937
5127,1947
5131,1947
5135,1908
5139,1874
5143,1859
5147,1851
5151,1829
5155,1831
5159,1836
5163,1838
5167,1826
5171,1823
5175,1836
5179,1854
5183,1842
5187,1855
5191,1851
5195,1863
5199,1861
5203,1869
5207,1874
5211,1883
5215,1879
5219,1873
5223,1887
5227,1904
5231,1906
5235,1905
5239,1918
5243,1927
5247,1923
5251,1927
5255,1936
5259,1956
5263,1966
5267,1965
5271,1970
5275,1986
5279,1999
5283,2000
5287,2003
5291,2029
5295,2038
5299,2046
5303,2064
5307,2083
5311,2101
5315,2112
5319,2118
5323,2135
5327,2156
5331,2164
5335,2165
5339,2173
5343,2177
5347,2181
5351,2173
5355,2166
5359,2139
5363,2119
5367,2076
5371,2034
5375,2000
5379,1967
5383,1922
5387,1895
5391,1878
5395,1866
5399,1850
5403,1830
5407,1827
5411,1834
5415,1827
5419,1821
5423,1828
5427,1833
5431,1829
5435,1819
5439,1820
5443,1833
5447,1835
5451,1833
5455,1840
5459,1841
5463,1855
5467,1845
5471,1845
5475,1858
5479,1858
5483,1859
5487,1860
5491,1867
5495,1872
5499,1867
5503,1863
5507,1872
5511,1875
5515,1874
5519,1863
5523,1866
5527,1874
5531,1872
5535,1871
5539,1872
5543,1878
5547,1878
5551,1872
5555,1872
5559,1882
5563,1888
5567,1878
5571,1876
5575,1888
5579,1891
5583,1878
5587,1875
5591,1886
5595,1891
5599,1901
5603,1895
5607,1899
5611,1901
5615,1902
5619,1899
5623,1904
5627,1904
5631,1904
5635,1897
5639,1899
5643,1914
5647,1911
5651,1904
5655,1904
5659,1914
5663,1911
5667,1907
5671,1907
5675,1909
5679,1920
5683,1913
5687,1909
5691,1919
5695,1922
5699,1913
5703,1908
5707,1922
5711,1931
5715,1925
5719,1917
5723,1921
5727,1925
5731,1934
5735,1919
5739,1921
5743,1929
5747,1934
5751,1929
5755,1934
5759,1937
5763,1939
5767,1936
5771,1949
5775,1975
5779,2000
5783,2001
5787,2002
5791,2017
5795,2022
5799,2010
5803,2000
5807,1994
5811,1985
5815,1970
5819,1943
5823,1936
5827,1941
5831,1941
5835,1942
5839,1942
5843,1957
5847,1962
5851,1955
5855,1952
5859,1958
5863,1958
5867,1942
5871,1948
5875,1963
5879,1965
5883,1939
5887,1873
5891,1800
5895,1791
5899,1949
5903,2386
5907,3055
5911,4032
5915,4095
5919,3641
5923,2866
5927,2326
5931,2065
5935,1955
5939,1952
5943,1967
5947,1961
5951,1925
5955,1917
5959,1904
5963,1920
5967,1909
5971,1882
5975,1888
5979,1889
5983,1888
5987,1883
5991,1900
5995,1903
5999,1894
6003,1889
6007,1903
6011,1911
6015,1911
6019,1913
6023,1917
6027,1927
6031,1931
6035,1928
6039,1944
6043,1957
6047,1962
6051,1956
6055,1965
6059,1974
6063,1981
6067,1985
6071,1999
6075,2014
6079,2021
6083,2011
6087,2019
6091,2044
6095,2067
6099,2070
6103,2075
6107,2095
6111,2110
6115,2112
6119,2117
6123,2132
6127,2150
6131,2157
6135,2156
6139,2166
6143,2185
6147,2191
6151,2192
6155,2206
6159,2221
6163,2217
6167,2198
6171,2186
6175,2166
6179,2128
6183,2081
6187,2029
6191,2005
6195,1978
6199,1939
6203,1905
6207,1890
6211,1877
6215,1861
6219,1843
6223,1840
6227,1849
6231,1843
6235,1840
6239,1839
6243,1845
6247,1846
6251,1840
6255,1849
6259,1856
6263,1856
6267,1852
6271,1853
6275,1865
6279,1872
6283,1862
6287,1866
6291,1872
6295,1881
6299,1872
6303,1877
6307,1884
6311,1890
6315,1882
6319,1875
6323,1883
6327,1887
6331,1888
6335,1883
6339,1891
6343,1895
6347,1889
6351,1881
6355,1881
6359,1890
6363,1890
6367,1879
6371,1890
6375,1895
6379,1904
6383,1891
6387,1884
6391,1927
6395,1903
6399,1903
6403,1898
6407,1904
6411,1905
6415,1903
6419,1891
6423,1898
6427,1905
6431,1907
6435,1902
6439,1907
6443,1915
6447,1913
6451,1907
6455,1909
6459,1917
6463,1921
6467,1915
6471,1914
6475,1922
6479,1923
6483,1920
6487,1920
6491,1923
6495,1925
6499,1919
6503,1919
6507,1922
6511,1927
6515,1925
6519,1923
6523,1921
6527,1934
6531,1933
6535,1930
6539,1929
6543,1935
6547,1926
6551,1926
6555,1924
6559,1937
6563,1938
6567,1936
6571,1936
6575,1936
6579,1939
6583,1949
6587,1973
6591,2000
6595,2010
6599,2007
6603,2015
6607,2021
6611,2022
6615,1998
6619,1978
6623,1975
6627,1971
6631,1956
6635,1934
6639,1935
6643,1943
6647,1943
6651,1935
6655,1936
6659,1943
6663,1946
6667,1938
6671,1935
6675,1941
6679,1946
6683,1943
6687,1949
6691,1950
6695,1926
6699,1840
6703,1744
6707,1765
6711,2061
6715,2636
6719,3454
6723,4095
6727,4095
6731,3991
6735,3065
6739,2410
6743,2077
6747,1968
6751,1949
6755,1937
6759,1934
6763,1911
6767,1883
6771,1872
6775,1866
6779,1860
6783,1854
6787,1847
6791,1854
6795,1865
6799,1858
6803,1853
6807,1867
6811,1872
6815,1872
6819,1865
6823,1877
6827,1887
6831,1893
6835,1886
6839,1897
6843,1909
6847,1913
6851,1911
6855,1919
6859,1923
6863,1933
6867,1931
6871,1935
6875,1936
6879,1956
6883,1951
6887,1952
6891,1968
6895,1984
6899,1987
6903,1991
6907,2005
6911,2022
6915,2026
6919,2032
6923,2058
6927,2067
6931,2085
6935,2091
6939,2106
6943,2125
6947,2130
6951,2131
6955,2151
6959,2176
6963,2190
6967,2191
6971,2192
6975,2195
6979,2192
6983,2165
6987,2137
6991,2112
6995,2074
6999,2025
7003,1985
7007,1985
7011,1919
7015,1894
7019,1871
7023,1858
7027,1857
7031,1849
7035,1835
7039,1831
7043,1840
7047,1838
7051,1829
7055,1838
7059,1841
7063,1843
7067,1839
7071,1834
7075,1847
7079,1853
7083,1847
7087,1853
7091,1866
7095,1862
7099,1854
7103,1851
7107,1861
7111,1872
7115,1866
7119,1856
7123,1869
7127,1872
7131,1870
7135,1859
7139,1867
7143,1877
7147,1874
7151,1868
7155,1869
7159,1877
7163,1884
7167,1872
7171,1878
7175,1886
7179,1885
7183,1878
7187,1873
7191,1887
7195,1889
7199,1885
7203,1882
7207,1891
7211,1903
7215,1895
7219,1885
7223,1893
7227,1899
7231,1891
7235,1883
7239,1895
7243,1904
7247,1902
7251,1893
7255,1900
7259,1904
7263,1909
7267,1903
7271,1901
7275,1904
7279,1907
7283,1906
7287,1904
7291,1913
7295,1915
7299,1915
7303,1911
7307,1923
7311,1922
7315,1910
7319,1906
7323,1917
7327,1921
7331,1921
7335,1919
7339,1922
7343,1922
7347,1922
7351,1920
7355,1920
7359,1930
7363,1927
7367,1921
7371,1920
7375,1933
7379,1935
7383,1936
7387,1936
7391,1934
7395,1937
7399,1943
7403,1967
7407,1999
7411,2018
7415,2005
7419,2009
7423,2013
7427,2023
7431,2004
7435,1986
7439,1983
7443,1975
7447,1959
7451,1935
7455,1936
7459,1949
7463,1957
7467,1949
7471,1945
7475,1947
7479,1950
7483,1942
7487,1938
7491,1950
7495,1949
7499,1946
7503,1943
7507,1952
7511,1936
7515,1856
7519,1735
7523,1726
7527,1990
7531,2606
7535,3501
7539,4095
7543,4095
7547,4095
7551,3846
7555,2863
7559,2246
7563,1977
7567,1913
7571,1911
7575,1910
7579,1893
7583,1859
7587,1839
7591,1821
7595,1810
7599,1803
7603,1794
7607,1799
7611,1804
7615,1805
7619,1805
7623,1813
7627,1818
7631,1825
7635,1822
7639,1834
7643,1843
7647,1851
7651,1844
7655,1853
7659,1863
7663,1870
7667,1863
7671,1870
7675,1885
7679,1888
7683,1888
7687,1885
7691,1899
7695,1904
7699,1906
7703,1908
7707,1925
7711,1936
7715,1932
7719,1940
7723,1959
7727,1979
7731,1985
7735,1994
7739,2001
7743,2016
7747,2037
7751,2046
7755,2064
7759,2088
7763,2102
7767,2114
7771,2122
7775,2145
7779,2155
7783,2158
7787,2166
7791,2175
7795,2179
7799,2157
7803,2128
7807,2103
7811,2067
7815,2019
7819,1978
7823,1948
7827,1917
7831,1887
7835,1857
7839,1841
7843,1840
7847,1840
7851,1827
7855,1826
7859,1826
7863,1826
7867,1818
7871,1821
7875,1827
7879,1863
7883,1836
7887,1831
7891,1837
7895,1866
7899,1840
7903,1826
7907,1840
7911,1856
7915,1843
7919,1839
7923,1840
7927,1861
7931,1840
7935,1845
7939,1857
7943,1861
7947,1855
7951,1853
7955,1861
7959,1870
7963,1873
7967,1869
7971,1873
7975,1872
7979,1872
7983,1866
7987,1870
7991,1872
7995,1871
7999,1861
8003,1863
8007,1873
8011,1878
8015,1882
8019,1877
8023,1883
8027,1891
8031,1889
8035,1878
8039,1887
8043,1895
8047,1891
8051,1886
8055,1890
8059,1887
8063,1895
8067,1882
8071,1882
8075,1901
8079,1904
8083,1898
8087,1895
8091,1901
8095,1902
8099,1901
8103,1895
8107,1904
8111,1907
8115,1907
8119,1904
8123,1906
8127,1910
8131,1908
8135,1905
8139,1907
8143,1919
8147,1914
8151,1909
8155,1918
8159,1923
8163,1931
8167,1918
8171,1917
8175,1929
8179,1936
8183,1927
8187,1921
8191,1933
8195,1931
8199,1929
8203,1930
8207,1931
8211,1933
8215,1937
8219,1936
8223,1936
8227,1937
8231,1936
8235,1946
8239,1981
8243,2002
8247,2011
8251,2001
8255,2011
8259,2018
8263,2014
8267,2000
8271,1991
8275,1985
8279,1984
8283,1954
8287,1935
8291,1941
8295,1943
8299,1937
8303,1937
8307,1939
8311,1943
8315,1945
8319,1943
8323,1940
8327,1946
8331,1950
8335,1939
8339,1945
8343,1952
8347,1919
8351,1819
8355,1713
8359,1763
8363,2128
8367,2807
8371,3867
8375,4095
8379,4095
8383,4095
8387,3504
8391,2650
8395,2147
8399,1951
8403,1918
8407,1923
8411,1916
8415,1891
8419,1859
8423,1841
8427,1840
8431,1825
8435,1814
8439,1815
8443,1830
8447,1826
8451,1818
8455,1821
8459,1830
8463,1840
8467,1834
8471,1834
8475,1855
8479,1860
8483,1853
8487,1857
8491,1866
8495,1873
8499,1872
8503,1874
8507,1887
8511,1890
8515,1890
8519,1894
8523,1904
8527,1916
8531,1923
8535,1919
8539,1932
8543,1950
8547,1953
8551,1957
8555,1962
8559,1984
8563,1991
8567,1993
8571,2000
8575,2026
8579,2040
8583,2058
8587,2075
8591,2096
8595,2112
8599,2112
8603,2119
8607,2139
8611,2155
8615,2162
8619,2171
8623,2177
8627,2189
8631,2176
8635,2154
8639,2128
8643,2106
8647,2064
8651,2019
8655,1981
8659,1960
8663,1925
8667,1887
8671,1866
8675,1855
8679,1847
8683,1836
8687,1823
8691,1835
8695,1838
8699,1827
8703,1818
8707,1827
8711,1829
8715,1826
8719,1819
8723,1834
8727,1843
8731,1841
8735,1835
8739,1840
8743,1847
8747,1851
8751,1843
8755,1851
8759,1883
8763,1862
8767,1853
8771,1853
8775,1863
8779,1868
8783,1858
8787,1867
8791,1872
8795,1872
8799,1870
8803,1869
8807,1910
8811,1860
8815,1883
8819,1834
8823,1871
8827,1891
8831,1889
8835,1893
8839,1885
8843,1888
8847,1904
8851,1910
8855,1853
8859,1888
8863,1905
8867,1888
8871,1891
8875,1902
8879,1904
8883,1903
8887,1901
8891,1904
8895,1906
8899,1904
8903,1911
8907,1904
8911,1910
8915,1908
8919,1904
8923,1906
8927,1915
8931,1915
8935,1910
8939,1919
8943,1920
8947,1917
8951,1917
8955,1915
8959,1925
8963,1925
8967,1921
8971,1919
8975,1930
8979,1936
8983,1931
8987,1930
8991,1938
8995,1949
8999,1936
9003,1934
9007,1931
9011,1936
9015,1931
9019,1927
9023,1936
9027,1937
9031,1936
9035,1937
9039,1977
9043,2000
9047,2000
9051,2000
9055,2006
9059,2021
9063,2019
9067,2000
9071,1991
9075,1983
9079,1974
9083,1942
9087,1933
9091,1947
9095,1952
9099,1955
9103,1950
9107,1957
9111,1962
9115,1952
9119,1941
9123,1953
9127,1957
9131,1957
9135,1955
9139,1962
9143,1961
9147,1934
9151,1840
9155,1757
9159,1783
9163,2046
9167,2597
9171,3377
9175,4095
9179,4095
9183,3785
9187,2918
9191,2325
9195,2032
9199,1951
9203,1945
9207,1953
9211,1945
9215,1920
9219,1894
9223,1883
9227,1875
9231,1869
9235,1861
9239,1863
9243,1872
9247,1872
9251,1858
9255,1875
9259,1877
9263,1877
9267,1872
9271,1882
9275,1896
9279,1900
9283,1899
9287,1904
9291,1920
9295,1925
9299,1918
9303,1926
9307,1936
9311,1940
9315,1951
9319,1942
9323,1954
9327,1964
9331,1968
9335,1971
9339,1984
9343,2000
9347,2000
9351,2003
9355,2007
9359,2027
9363,2037
9367,2045
9371,2064
9375,2083
9379,2103
9383,2105
9387,2103
9391,2120
9395,2137
9399,2147
9403,2145
9407,2165
9411,2185
9415,2190
9419,2182
9423,2193
9427,2197
9431,2191
9435,2161
9439,2139
9443,2113
9447,2077
9451,2021
9455,1983
9459,1951
9463,1916
9467,1886
9471,1859
9475,1856
9479,1850
9483,1837
9487,1824
9491,1830
9495,1827
9499,1824
9503,1815
9507,1831
9511,1827
9515,1829
9519,1823
9523,1840
9527,1840
9531,1846
9535,1843
9539,1856
9543,1872
9547,1871
9551,1862
9555,1857
9559,1869
9563,1872
9567,1856
9571,1853
9575,1863
9579,1873
9583,1871
9587,1871
9591,1881
9595,1885
9599,1876
9603,1876
9607,1881
9611,1891
9615,1888
9619,1878
9623,1886
9627,1889
9631,1888
9635,1877
9639,1889
9643,1891
9647,1887
9651,1874
9655,1882
9659,1895
9663,1894
9667,1887
9671,1889
9675,1901
9679,1904
9683,1891
9687,1891
9691,1899
9695,1902
9699,1899
9703,1895
9707,1899
9711,1910
9715,1906
9719,1905
9723,1907
9727,1921
9731,1920
9735,1908
9739,1904
9743,1901
9747,1921
9751,1907
9755,1914
9759,1946
9763,1919
9767,1919
9771,1906
9775,1898
9779,1933
9783,1915
9787,1937
9791,1945
9795,1936
9799,1924
9803,1933
9807,1957
9811,1989
9815,1998
9819,1991
9823,2001
9827,2012
9831,2000
9835,1991
9839,1974
9843,1982
9847,1970
9851,1953
9855,1936
9859,1943
9863,1937
9867,1935
9871,1938
9875,1949
9879,1950
9883,1942
9887,1938
9891,1939
9895,1949
9899,1938
9903,1943
9907,1958
9911,1964
9915,1951
9919,1903
9923,1840
9927,1787
9931,1872
9935,2199
9939,2752
9943,3520
9947,4095
9951,3745
9955,3014
9959,2427
9963,2086
9967,1963
9971,1943
9975,1965
9979,1955
9983,1937
9987,1919
9991,1915
9995,1909
9999,1893
10003,1888
10007,1889
10011,1891
10015,1885
10019,1882
10023,1887
10027,1898
10031,1902
10035,1901
10039,1910
10043,1920
10047,1915
10051,1911
10055,1927
10059,1940
10063,1944
10067,1935
10071,1933
10075,1952
10079,1963
10083,1963
10087,1966
10091,1971
10095,1983
10099,1990
10103,1989
10107,2001
10111,2017
10115,2021
10119,2017
10123,2035
10127,2055
10131,2065
10135,2065
10139,2081
10143,2096
10147,2107
10151,2111
10155,2121
10159,2140
10163,2150
10167,2160
10171,2169
10175,2180
10179,2192
10183,2192
10187,2201
10191,2219
10195,2215
10199,2202
10203,2189
10207,2162
10211,2128
10215,2080
10219,2026
10223,2000
10227,1969
10231,1935
10235,1899
10239,1882
10243,1873
10247,1859
10251,1846
10255,1840
10259,1846
10263,1850
10267,1839
10271,1839
10275,1851
10279,1851
10283,1831
10287,1830
10291,1840
10295,1846
10299,1841
10303,1853
10307,1859
10311,1859
10315,1864
10319,1859
10323,1873
10327,1883
10331,1875
10335,1868
10339,1877
10343,1877
10347,1886
10351,1881
10355,1887
10359,1888
10363,1891
10367,1877
10371,1882
10375,1893
10379,1890
10383,1887
10387,1885
10391,1889
10395,1886
10399,1885
10403,1887
10407,1894
10411,1900
10415,1890
10419,1883
10423,1890
10427,1898
10431,1895
10435,1889
10439,1893
10443,1904
10447,1904
10451,1901
10455,1903
10459,1904
10463,1904
10467,1897
10471,1901
10475,1902
10479,1904
10483,1901
10487,1903
10491,1909
10495,1907
10499,1904
10503,1904
10507,1917
10511,1918
10515,1915
10519,1916
10523,1921
10527,1923
10531,1918
10535,1917
10539,1917
10543,1935
10547,1935
10551,1934
10555,1925
10559,1926
10563,1936
10567,1965
10571,1982
10575,1993
10579,2002
10583,2001
10587,2002
10591,2003
10595,1999
10599,1979
10603,1968
10607,1958
10611,1942
10615,1933
10619,1920
10623,1930
10627,1936
10631,1936
10635,1925
10639,1930
10643,1936
10647,1937
10651,1932
10655,1941
10659,1941
10663,1947
10667,1939
10671,1934
10675,1915
10679,1829
10683,1738
10687,1820
10691,2192
10695,2826
10699,3743
10703,4095
10707,4095
10711,3730
10715,2897
10719,2286
10723,2014
10727,1953
10731,1950
10735,1934
10739,1922
10743,1899
10747,1883
10751,1863
10755,1851
10759,1861
10763,1856
10767,1847
10771,1850
10775,1856
10779,1856
10783,1856
10787,1858
10791,1870
10795,1871
10799,1872
10803,1874
10807,1885
10811,1890
10815,1889
10819,1891
10823,1904
10827,1919
10831,1918
10835,1915
10839,1919
10843,1937
10847,1936
10851,1936
10855,1943
10859,1959
10863,1957
10867,1952
10871,1968
10875,1986
10879,1996
10883,1997
10887,2003
10891,2027
10895,2043
10899,2047
10903,2063
10907,2083
10911,2106
10915,2112
10919,2129
10923,2141
10927,2160
10931,2167
10935,2173
10939,2187
10943,2203
10947,2201
10951,2195
10955,2193
10959,2194
10963,2172
10967,2129
10971,2096
10975,2063
10979,2022
10983,1977
10987,1940
10991,1921
10995,1901
10999,1876
11003,1867
11007,1872
11011,1861
11015,1856
11019,1847
11023,1854
11027,1863
11031,1856
11035,1854
11039,1860
11043,1863
11047,1858
11051,1855
11055,1888
11059,1872
11063,1875
11067,1872
11071,1878
11075,1876
11079,1878
11083,1875
11087,1873
11091,1887
11095,1889
11099,1877
11103,1872
11107,1877
11111,1885
11115,1884
11119,1876
11123,1888
11127,1889
11131,1893
11135,1890
11139,1889
11143,1894
11147,1894
11151,1884
11155,1891
11159,1895
11163,1895
11167,1888
11171,1895
11175,1904
11179,1904
11183,1894
11187,1898
11191,1903
11195,1912
11199,1905
11203,1902
11207,1905
11211,1904
11215,1902
11219,1902
11223,1910
11227,1914
11231,1915
11235,1906
11239,1911
11243,1918
11247,1911
11251,1919
11255,1925
11259,1931
11263,1929
11267,1918
11271,1916
11275,1927
11279,1934
11283,1919
11287,1920
11291,1921
11295,1923
11299,1923
11303,1929
11307,1936
11311,1949
11315,1933
11319,1923
11323,1949
11327,1984
11331,1999
11335,2000
11339,2014
11343,2023
11347,2022
11351,2007
11355,2002
11359,2000
11363,1985
11367,1968
11371,1943
11375,1946
11379,1943
11383,1943
11387,1945
11391,1954
11395,1958
11399,1952
11403,1945
11407,1949
11411,1953
11415,1950
11419,1952
11423,1950
11427,1957
11431,1954
11435,1907
11439,1815
11443,1728
11447,1791
11451,2165
11455,2859
11459,3953
11463,4095
11467,4095
11471,4095
11475,3376
11479,2567
11483,2103
11487,1947
11491,1927
11495,1933
11499,1915
11503,1886
11507,1867
11511,1851
11515,1826
11519,1818
11523,1824
11527,1830
11531,1829
11535,1822
11539,1827
11543,1840
11547,1850
11551,1843
11555,1846
11559,1853
11563,1857
11567,1856
11571,1862
11575,1871
11579,1877
11583,1871
11587,1878
11591,1856
11595,1809
11599,1888
11603,1889
11607,1904
11611,1911
11615,1915
11619,1926
11623,1931
11627,1936
11631,1942
11635,1943
11639,1961
11643,1968
11647,1980
11651,1984
11655,2000
11659,2022
11663,2035
11667,2046
11671,2073
11675,2093
11679,2110
11683,2105
11687,2125
11691,2145
11695,2158
11699,2160
11703,2163
11707,2180
11711,2191
11715,2183
11719,2162
11723,2143
11727,2123
11731,2085
11735,2032
11739,2000
11743,1967
11747,1929
11751,1896
11755,1874
11759,1865
11763,1854
11767,1840
11771,1840
11775,1840
11779,1837
11783,1825
11787,1822
11791,1840
11795,1841
11799,1840
11803,1839
11807,1841
11811,1847
11815,1841
11819,1846
11823,1846
11827,1858
11831,1856
11835,1855
11839,1859
11843,1862
11847,1857
11851,1856
11855,1856
11859,1863
11863,1863
11867,1857
11871,1862
11875,1872
11879,1872
11883,1867
11887,1867
11891,1870
11895,1872
11899,1870
11903,1868
11907,1877
11911,1885
11915,1877
11919,1874
11923,1876
11927,1876
11931,1871
11935,1869
11939,1877
11943,1887
11947,1886
11951,1875
11955,1879
11959,1892
11963,1887
11967,1882
11971,1886
11975,1895
11979,1895
11983,1883
11987,1883
11991,1893
11995,1901
11999,1890
12003,1899
12007,1904
12011,1905
12015,1903
12019,1891
12023,1898
12027,1904
12031,1904
12035,1897
12039,1907
12043,1919
12047,1919
12051,1908
12055,1906
12059,1911
12063,1909
12067,1907
12071,1922
12075,1929
12079,1921
12083,1910
12087,1912
12091,1941
12095,1973
12099,1975
12103,1978
12107,1989
12111,2000
12115,1987
12119,1979
12123,1975
12127,1973
12131,1950
12135,1929
12139,1917
12143,1920
12147,1921
12151,1920
12155,1922
12159,1929
12163,1924
12167,1920
12171,1920
12175,1926
12179,1926
12183,1923
12187,1925
12191,1936
12195,1939
12199,1911
12203,1829
12207,1729
12211,1712
12215,1958
12219,2577
12223,3507
12227,4095
12231,4095
12235,4095
12239,3815
12243,2842
12247,2233
12251,1968
12255,1904
12259,1914
12263,1903
12267,1872
12271,1845
12275,1837
12279,1818
12283,1808
12287,1805
12291,1806
12295,1801
12299,1805
12303,1806
12307,1809
12311,1819
12315,1818
12319,1823
12323,1831
12327,1840
12331,1842
12335,1840
12339,1856
12343,1863
12347,1856
12351,1858
12355,1866
12359,1872
12363,1874
12367,1873
12371,1879
12375,1899
12379,1903
12383,1898
12387,1904
12391,1917
12395,1932
12399,1931
12403,1936
12407,1952
12411,1967
12415,1971
12419,1978
12423,2000
12427,2018
12431,2032
12435,2045
12439,2064
12443,2085
12447,2094
12451,2098
12455,2124
12459,2142
12463,2150
12467,2154
12471,2161
12475,2179
12479,2176
12483,2161
12487,2140
12491,2122
12495,2096
12499,2039
12503,1991
12507,1977
12511,1927
12515,1902
12519,1858
12523,1847
12527,1840
12531,1831
12535,1813
12539,1808
12543,1822
12547,1815
12551,1808
12555,1808
12559,1817
12563,1811
12567,1798
12571,1822
12575,1835
12579,1831
12583,1827
12587,1825
12591,1835
12595,1842
12599,1837
12603,1839
12607,1837
12611,1849
12615,1854
12619,1845
12623,1856
12627,1867
12631,1862
12635,1855
12639,1858
12643,1862
12647,1863
12651,1865
12655,1866
12659,1872
12663,1872
12667,1861
12671,1862
12675,1870
12679,1872
12683,1871
12687,1866
12691,1872
12695,1879
12699,1872
12703,1872
12707,1873
12711,1878
12715,1874
12719,1873
12723,1882
12727,1882
12731,1875
12735,1885
12739,1897
12743,1897
12747,1885
12751,1874
12755,1885
12759,1897
12763,1902
12767,1895
12771,1890
12775,1899
12779,1898
12783,1898
12787,1904
12791,1914
12795,1913
12799,1911
12803,1907
12807,1910
12811,1918
12815,1916
12819,1917
12823,1934
12827,1933
12831,1923
12835,1921
12839,1952
12843,1981
12847,1988
12851,1987
12855,1991
12859,2006
12863,2000
12867,1984
12871,1978
12875,1969
12879,1965
12883,1936
12887,1920
12891,1927
12895,1930
12899,1911
12903,1914
12907,1927
12911,1932
12915,1932
12919,1927
12923,1934
12927,1936
12931,1936
12935,1930
12939,1936
12943,1938
12947,1920
12951,1849
12955,1755
12959,1733
12963,1934
12967,2457
12971,3246
12975,4095
12979,4095
12983,4095
12987,3306
12991,2541
12995,2103
12999,1949
13003,1934
13007,1935
13011,1933
13015,1910
13019,1879
13023,1871
13027,1863
13031,1849
13035,1837
13039,1840
13043,1842
13047,1840
13051,1835
13055,1846
13059,1863
13063,1859
13067,1859
13071,1866
13075,1877
13079,1876
13083,1877
13087,1891
13091,1888
13095,1894
13099,1887
13103,1899
13107,1909
13111,1911
13115,1914
13119,1925
13123,1936
13127,1942
13131,1947
13135,1949
13139,1959
13143,1969
13147,1979
13151,1985
13155,1991
13159,2013
13163,2031
13167,2032
13171,2041
13175,2065
13179,2080
13183,2094
13187,2102
13191,2119
13195,2133
13199,2143
13203,2153
13207,2176
13211,2187
13215,2189
13219,2190
13223,2192
13227,2199
13231,2191
13235,2163
13239,2133
13243,2105
13247,2064
13251,2014
13255,1984
13259,1946
13263,1919
13267,1882
13271,1866
13275,1857
13279,1846
13283,1825
13287,1824
13291,1830
13295,1831
13299,1824
13303,1824
13307,1829
13311,1838
13315,1827
13319,1823
13323,1836
13327,1850
13331,1850
13335,1841
13339,1853
13343,1866
13347,1863
13351,1857
13355,1865
13359,1872
13363,1873
13367,1872
13371,1874
13375,1878
13379,1882
13383,1863
13387,1872
13391,1885
13395,1887
13399,1885
13403,1884
13407,1886
13411,1893
13415,1888
13419,1881
13423,1887
13427,1895
13431,1893
13435,1886
13439,1891
13443,1917
13447,1894
13451,1899
13455,1891
13459,1904
13463,1895
13467,1893
13471,1910
13475,1910
13479,1904
13483,1919
13487,1888
13491,1903
13495,1894
13499,1896
13503,1902
13507,1908
13511,1914
13515,1911
13519,1907
13523,1919
13527,1921
13531,1918
13535,1910
13539,1919
13543,1920
13547,1927
13551,1919
13555,1920
13559,1930
13563,1915
13567,1914
13571,1941
13575,1974
13579,1983
13583,1984
13587,1995
13591,2006
13595,2011
13599,1991
13603,1981
13607,1979
13611,1971
13615,1942
13619,1921
13623,1929
13627,1939
13631,1949
13635,1936
13639,1936
13643,1943
13647,1939
13651,1927
13655,1934
13659,1940
13663,1939
13667,1932
13671,1936
13675,1945
13679,1947
13683,1903
13687,1826
13691,1775
13695,1840
13699,2154
13703,2719
13707,3536
13711,4095
13715,4023
13719,3185
13723,2518
13727,2111
13731,1951
13735,1933
13739,1943
13743,1961
13747,1935
13751,1902
13755,1889
13759,1881
13763,1872
13767,1862
13771,1862
13775,1872
13779,1876
13783,1873
13787,1877
13791,1888
13795,1895
13799,1886
13803,1894
13807,1905
13811,1913
13815,1909
13819,1904
13823,1916
13827,1925
13831,1926
13835,1923
13839,1937
13843,1945
13847,1951
13851,1942
13855,1958
13859,1968
13863,1971
13867,1973
13871,1986
13875,1999
13879,2010
13883,2013
13887,2018
13891,2032
13895,2044
13899,2057
13903,2069
13907,2092
13911,2106
13915,2105
13919,2121
13923,2145
13927,2159
13931,2160
13935,2161
13939,2175
13943,2189
13947,2192
13951,2198
13955,2214
13959,2214
13963,2207
13967,2181
13971,2151
13975,2122
13979,2083
13983,2032
13987,1995
13991,1962
13995,1920
13999,1891
14003,1871
14007,1863
14011,1842
14015,1823
14019,1819
14023,1821
14027,1826
14031,1823
14035,1822
14039,1829
14043,1833
14047,1831
14051,1833
14055,1838
14059,1847
14063,1842
14067,1837
14071,1840
14075,1852
14079,1854
14083,1857
14087,1859
14091,1865
14095,1863
14099,1868
14103,1868
14107,1873
14111,1875
14115,1872
14119,1874
14123,1881
14127,1883
14131,1883
14135,1874
14139,1893
14143,1893
14147,1883
14151,1879
14155,1882
14159,1890
14163,1889
14167,1879
14171,1888
14175,1897
14179,1904
14183,1885
14187,1882
14191,1890
14195,1885
14199,1884
14203,1875
14207,1891
14211,1896
14215,1885
14219,1886
14223,1889
14227,1893
14231,1891
14235,1891
14239,1887
14243,1897
14247,1898
14251,1895
14255,1904
14259,1911
14263,1915
14267,1907
14271,1904
14275,1906
14279,1905
14283,1903
14287,1904
14291,1915
14295,1915
14299,1913
14303,1911
14307,1938
14311,1973
14315,1975
14319,1981
14323,1991
14327,1995
14331,1990
14335,1979
14339,1973
14343,1967
14347,1947
14351,1917
14355,1914
14359,1915
14363,1922
14367,1920
14371,1915
14375,1922
14379,1924
14383,1933
14387,1920
14391,1930
14395,1929
14399,1920
14403,1920
14407,1927
14411,1936
14415,1904
14419,1854
14423,1745
14427,1727
14431,1951
14435,2512
14439,3335
14443,4095
14447,4095
14451,4095
14455,3349
14459,2577
14463,2127
14467,1949
14471,1931
14475,1939
14479,1926
14483,1893
14487,1872
14491,1850
14495,1839
14499,1826
14503,1815
14507,1833
14511,1851
14515,1827
14519,1830
14523,1840
14527,1856
14531,1843
14535,1843
14539,1855
14543,1858
14547,1867
14551,1860
14555,1874
14559,1889
14563,1893
14567,1885
14571,1889
14575,1904
14579,1905
14583,1901
14587,1902
14591,1918
14595,1920
14599,1922
14603,1929
14607,1942
14611,1947
14615,1953
14619,1958
14623,1978
14627,1985
14631,1997
14635,2001
14639,2018
14643,2037
14647,2064
14651,2064
14655,2079
14659,2100
14663,2111
14667,2112
14671,2128
14675,2147
14679,2157
14683,2160
14687,2170
14691,2188
14695,2189
14699,2175
14703,2147
14707,2118
14711,2096
14715,2045
14719,2001
14723,1974
14727,1947
14731,1915
14735,1893
14739,1875
14743,1872
14747,1854
14751,1840
14755,1840
14759,1845
14763,1849
14767,1843
14771,1842
14775,1857
14779,1856
14783,1857
14787,1855
14791,1856
14795,1858
14799,1853
14803,1856
14807,1862
14811,1872
14815,1873
14819,1871
14823,1880
14827,1878
14831,1878
14835,1873
14839,1878
14843,1889
14847,1887
14851,1881
14855,1883
14859,1897
14863,1884
14867,1885
14871,1884
14875,1892
14879,1899
14883,1889
14887,1890
14891,1900
14895,1908
14899,1900
14903,1903
14907,1907
14911,1908
14915,1897
14919,1895
14923,1904
14927,1911
14931,1904
14935,1903
14939,1907
14943,1915
14947,1922
14951,1916
14955,1919
14959,1924
14963,1909
14967,1913
14971,1918
14975,1927
14979,1926
14983,1915
14987,1909
14991,1927
14995,1923
14999,1923
15003,1918
15007,1932
15011,1936
15015,1923
15019,1924
15023,1946
15027,1980
15031,1994
15035,1994
15039,2001
15043,2011
15047,2005
15051,2000
15055,2006
15059,1999
15063,1984
15067,1962
15071,1948
15075,1940
15079,1937
15083,1936
15087,1936
15091,1943
15095,1950
15099,1936
15103,1937
15107,1951
15111,1945
15115,1941
15119,1935
15123,1945
15127,1953
15131,1950
15135,1905
15139,1808
15143,1712
15147,1762
15151,2155
15155,2875
15159,4046
15163,4095
15167,4095
15171,4095
15175,3398
15179,2559
15183,2093
15187,1934
15191,1919
15195,1917
15199,1895
15203,1871
15207,1853
15211,1840
15215,1822
15219,1808
15223,1813
15227,1823
15231,1815
15235,1808
15239,1821
15243,1831
15247,1826
15251,1829
15255,1835
15259,1845
15263,1850
15267,1847
15271,1845
15275,1863
15279,1865
15283,1865
15287,1870
15291,1883
15295,1901
15299,1885
15303,1879
15307,1917
15311,1906
15315,1902
15319,1906
15323,1919
15327,1938
15331,1938
15335,1968
15339,1958
15343,1956
15347,1952
15351,1975
15355,1997
15359,2013
15363,2025
15367,2032
15371,2047
15375,2079
15379,2096
15383,2101
15387,2115
15391,2133
15395,2151
15399,2152
15403,2155
15407,2174
15411,2186
15415,2171
15419,2146
15423,2128
15427,2106
15431,2063
15435,2007
15439,1977
15443,1941
15447,1908
15451,1879
15455,1867
15459,1855
15463,1840
15467,1829
15471,1825
15475,1830
15479,1823
15483,1817
15487,1821
15491,1835
15495,1833
15499,1835
15503,1831
15507,1840
15511,1853
15515,1841
15519,1839
15523,1851
15527,1856
15531,1857
15535,1853
15539,1855
15543,1862
15547,1857
15551,1855
15555,1861
15559,1872
15563,1872
15567,1865
15571,1863
15575,1872
15579,1878
15583,1875
15587,1877
15591,1878
15595,1886
15599,1877
15603,1886
15607,1893
15611,1897
15615,1883
15619,1879
15623,1888
15627,1886
15631,1885
15635,1882
15639,1886
15643,1895
15647,1895
15651,1893
15655,1898
15659,1903
15663,1904
15667,1889
15671,1902
15675,1904
15679,1905
15683,1904
15687,1904
15691,1915
15695,1917
15699,1904
15703,1906
15707,1926
15711,1935
15715,1917
15719,1916
15723,1926
15727,1953
15731,1970
15735,1970
15739,1977
15743,1994
15747,1994
15751,1983
15755,1974
15759,1971
15763,1957
15767,1940
15771,1922
15775,1920
15779,1919
15783,1913
15787,1918
15791,1926
15795,1931
15799,1919
15803,1920
15807,1923
15811,1924
15815,1911
15819,1915
15823,1922
15827,1929
15831,1915
15835,1866
15839,1774
15843,1691
15847,1770
15851,2195
15855,2928
15859,4095
15863,4095
15867,4095
15871,4081
15875,3055
15879,2349
15883,2002
15887,1910
15891,1921
15895,1911
15899,1882
15903,1851
15907,1837
15911,1821
15915,1809
15919,1806
15923,1814
15927,1820
15931,1818
15935,1813
15939,1823
15943,1826
15947,1823
15951,1825
15955,1841
15959,1854
15963,1853
15967,1842
15971,1851
15975,1865
15979,1863
15983,1866
15987,1874
15991,1891
15995,1899
15999,1894
16003,1893
16007,1904
16011,1915
16015,1911
16019,1919
16023,1923
16027,1936
16031,1936
16035,1954
16039,1970
16043,1983
16047,1987
16051,1994
16055,2017
16059,2034
16063,2045
16067,2059
16071,2075
16075,2098
16079,2109
16083,2110
16087,2127
16091,2139
16095,2147
16099,2150
16103,2151
16107,2166
16111,2176
16115,2162
16119,2132
16123,2112
16127,2077
16131,2026
16135,1974
16139,1942
16143,1915
16147,1878
16151,1853
16155,1835
16159,1831
16163,1819
16167,1808
16171,1809
16175,1823
16179,1815
16183,1809
16187,1808
16191,1809
16195,1818
16199,1818
16203,1827
16207,1830
16211,1840
16215,1831
16219,1825
16223,1835
16227,1842
16231,1841
16235,1854
16239,1846
16243,1846
16247,1854
16251,1847
16255,1874
16259,1867
16263,1859
16267,1851
16271,1845
16275,1857
16279,1870
16283,1861
16287,1868
16291,1871
16295,1871
16299,1863
16303,1862
16307,1872
16311,1879
16315,1874
16319,1872
16323,1887
16327,1893
16331,1877
16335,1876
16339,1885
16343,1889
16347,1882
16351,1872
16355,1881
16359,1899
16363,1892
16367,1882
16371,1879
16375,1895
16379,1895
16383,1885
16387,1890
16391,1904
16395,1924
16399,1945
16403,1968
16407,1984
16411,1973
16415,1955
16419,1936
16423,1944
16427,1939
16431,1916
16435,1904
16439,1905
16443,1907
16447,1904
16451,1898
16455,1904
16459,1907
16463,1907
16467,1898
16471,1906
16475,1919
16479,1920
16483,1907
16487,1911
16491,1926
16495,1919
16499,1872
16503,1787
16507,1734
16511,1824
16515,2193
16519,2821
16523,3743
16527,4095
16531,4095
16535,3185
16539,2467
16543,2058
16547,1918
16551,1917
16555,1929
16559,1938
16563,1913
16567,1874
16571,1861
16575,1855
16579,1841
16583,1842
16587,1850
16591,1853
16595,1847
16599,1847
16603,1845
16607,1863
16611,1862
16615,1857
16619,1862
16623,1874
16627,1879
16631,1877
16635,1878
16639,1894
16643,1913
16647,1910
16651,1904
16655,1915
16659,1923
16663,1927
16667,1927
16671,1938
16675,1963
16679,1959
16683,1953
16687,1964
16691,1989
16695,2000
16699,1997
16703,2002
16707,2017
16711,2027
16715,2032
16719,2043
16723,2069
16727,2087
16731,2095
16735,2109
16739,2126
16743,2146
16747,2149
16751,2146
16755,2151
16759,2163
16763,2175
16767,2176
16771,2177
16775,2178
16779,2167
16783,2129
16787,2087
16791,2063
16795,2020
16799,1975
16803,1936
16807,1914
16811,1886
16815,1859
16819,1842
16823,1841
16827,1845
16831,1835
16835,1829
16839,1834
16843,1836
16847,1835
16851,1830
16855,1838
16859,1844
16863,1842
16867,1843
16871,1845
16875,1856
16879,1854
16883,1853
16887,1856
16891,1871
16895,1874
16899,1867
16903,1869
16907,1872
16911,1884
16915,1874
16919,1878
16923,1895
16927,1903
16931,1891
16935,1884
16939,1897
16943,1902
16947,1891
16951,1887
16955,1893
16959,1901
16963,1898
16967,1883
16971,1886
16975,1899
16979,1899
16983,1898
16987,1902
16991,1905
16995,1907
16999,1895
17003,1895
17007,1903
17011,1902
17015,1890
17019,1887
17023,1909
17027,1933
17031,1939
17035,1964
17039,1983
17043,1987
17047,1968
17051,1947
17055,1943
17059,1946
17063,1933
17067,1917
17071,1917
17075,1922
17079,1922
17083,1917
17087,1918
17091,1918
17095,1921
17099,1915
17103,1920
17107,1926
17111,1927
17115,1919
17119,1919
17123,1934
17127,1932
17131,1899
17135,1825
17139,1775
17143,1823
17147,2077
17151,2544
17155,3221
17159,3846
17163,3863
17167,3042
17171,2438
17175,2061
17179,1915
17183,1904
17187,1909
17191,1955
17195,1937
17199,1932
17203,1879
17207,1879
17211,1891
17215,1879
17219,1878
17223,1885
17227,1890
17231,1887
17235,1886
17239,1899
17243,1907
17247,1904
17251,1906
17255,1914
17259,1921
17263,1927
17267,1926
17271,1925
17275,1937
17279,1941
17283,1937
17287,1938
17291,1957
17295,1968
17299,1967
17303,1975
17307,1980
17311,1990
17315,1987
17319,1990
17323,2001
17327,2015
17331,2019
17335,2032
17339,2055
17343,2071
17347,2070
17351,2066
17355,2087
17359,2107
17363,2112
17367,2123
17371,2143
17375,2150
17379,2149
17383,2150
17387,2160
17391,2178
17395,2188
17399,2185
17403,2181
17407,2181
17411,2166
17415,2133
17419,2096
17423,2063
17427,2018
17431,1980
17435,1940
17439,1919
17443,1902
17447,1872
17451,1856
17455,1859
17459,1855
17463,1846
17467,1838
17471,1836
17475,1845
17479,1840
17483,1835
17487,1841
17491,1850
17495,1856
17499,1849
17503,1846
17507,1854
17511,1859
17515,1854
17519,1854
17523,1870
17527,1875
17531,1872
17535,1871
17539,1878
17543,1879
17547,1879
17551,1874
17555,1882
17559,1885
17563,1886
17567,1881
17571,1886
17575,1891
17579,1891
17583,1888
17587,1883
17591,1890
17595,1885
17599,1876
17603,1875
17607,1887
17611,1887
17615,1890
17619,1890
17623,1894
17627,1904
17631,1894
17635,1893
17639,1888
17643,1889
17647,1893
17651,1895
17655,1911
17659,1950
17663,1968
17667,1969
17671,1970
17675,1952
17679,1935
17683,1923
17687,1923
17691,1909
17695,1910
17699,1903
17703,1895
17707,1898
17711,1897
17715,1899
17719,1902
17723,1907
17727,1907
17731,1906
17735,1905
17739,1905
17743,1909
17747,1905
17751,1909
17755,1903
17759,1843
17763,1755
17767,1729
17771,1923
17775,2411
17779,3089
17783,4047
17787,4095
17791,3682
17795,2892
17799,2286
17803,1984
17807,1919
17811,1926
17815,1919
17819,1909
17823,1891
17827,1872
17831,1854
17835,1845
17839,1843
17843,1845
17847,1839
17851,1834
17855,1850
17859,1855
17863,1847
17867,1842
17871,1847
17875,1862
17879,1865
17883,1856
17887,1872
17891,1887
17895,1891
17899,1886
17903,1894
17907,1897
17911,1904
17915,1903
17919,1905
17923,1915
17927,1924
17931,1923
17935,1927
17939,1938
17943,1950
17947,1949
17951,1948
17955,1962
17959,1973
17963,1984
17967,1989
17971,2000
17975,2022
17979,2034
17983,2042
17987,2063
17991,2082
17995,2096
17999,2100
18003,2107
18007,2127
18011,2131
18015,2134
18019,2145
18023,2159
18027,2166
18031,2154
18035,2141
18039,2123
18043,2097
18047,2058
18051,2014
18055,1983
18059,1953
18063,1920
18067,1893
18071,1877
18075,1872
18079,1858
18083,1841
18087,1872
18091,1844
18095,1872
18099,1827
18103,1842
18107,1847
18111,1872
18115,1840
18119,1862
18123,1843
18127,1846
18131,1872
18135,1873
18139,1853
18143,1874
18147,1869
18151,1868
18155,1872
18159,1875
18163,1876
18167,1870
18171,1881
18175,1890
18179,1875
18183,1872
18187,1879
18191,1883
18195,1886
18199,1875
18203,1882
18207,1886
18211,1891
18215,1888
18219,1889
18223,1898
18227,1895
18231,1886
18235,1885
18239,1895
18243,1904
18247,1904
18251,1894
18255,1901
18259,1906
18263,1904
18267,1903
18271,1905
18275,1914
18279,1915
18283,1910
18287,1910
18291,1914
18295,1918
18299,1913
18303,1909
18307,1925
18311,1924
18315,1931
18319,1944
18323,1985
18327,2010
18331,2002
18335,1979
18339,1969
18343,1969
18347,1966
18351,1947
18355,1939
18359,1934
18363,1929
18367,1922
18371,1933
18375,1938
18379,1937
18383,1927
18387,1929
18391,1933
18395,1934
18399,1929
18403,1930
18407,1936
18411,1938
18415,1931
18419,1890
18423,1793
18427,1729
18431,1839
18435,2266
18439,2966
18443,4095
18447,4095
18451,4095
18455,3805
18459,2889
18463,2272
18467,1995
18471,1936
18475,1937
18479,1935
18483,1919
18487,1904
18491,1883
18495,1862
18499,1842
18503,1840
18507,1850
18511,1852
18515,1841
18519,1840
18523,1847
18527,1859
18531,1855
18535,1852
18539,1867
18543,1871
18547,1872
18551,1863
18555,1872
18559,1882
18563,1886
18567,1877
18571,1890
18575,1904
18579,1906
18583,1904
18587,1904
18591,1912
18595,1918
18599,1925
18603,1933
18607,1947
18611,1955
18615,1958
18619,1957
18623,1978
18627,1990
18631,1988
18635,1996
18639,2018
18643,2036
18647,2047
18651,2062
18655,2079
18659,2098
18663,2112
18667,2112
18671,2129
18675,2146
18679,2150
18683,2155
18687,2162
18691,2176
18695,2169
18699,2153
18703,2128
18707,2107
18711,2069
18715,2023
18719,1988
18723,1967
18727,1936
18731,1906
18735,1891
18739,1872
18743,1869
18747,1862
18751,1850
18755,1853
18759,1856
18763,1854
18767,1851
18771,1857
18775,1867
18779,1858
18783,1853
18787,1857
18791,1866
18795,1866
18799,1863
18803,1859
18807,1871
18811,1877
18815,1874
18819,1871
18823,1875
18827,1878
18831,1874
18835,1876
18839,1879
18843,1883
18847,1877
18851,1869
18855,1875
18859,1887
18863,1888
18867,1882
18871,1883
18875,1891
18879,1889
18883,1885
18887,1889
18891,1893
18895,1891
18899,1881
18903,1885
18907,1895
18911,1899
18915,1897
18919,1890
18923,1893
18927,1900
18931,1901
18935,1900
18939,1909
18943,1904
18947,1904
18951,1904
18955,1907
18959,1915
18963,1910
18967,1904
18971,1907
18975,1915
18979,1918
18983,1917
18987,1917
18991,1914
18995,1916
18999,1917
19003,1927
19007,1957
19011,1986
19015,1994
19019,1989
19023,1962
19027,1920
19031,1953
19035,1935
19039,1935
19043,1933
19047,1920
19051,1904
19055,1917
19059,1921
19063,1927
19067,1908
19071,1911
19075,1927
19079,1935
19083,1920
19087,1922
19091,1936
19095,1935
19099,1922
19103,1918
19107,1860
19111,1765
19115,1677
19119,1808
19123,2304
19127,3090
19131,4095
19135,4095
19139,4095
19143,4095
19147,3106
19151,2369
19155,2007
19159,1916
19163,1903
19167,1902
19171,1883
19175,1865
19179,1840
19183,1810
19187,1803
19191,1805
19195,1806
19199,1794
19203,1799
19207,1813
19211,1809
19215,1808
19219,1809
19223,1827
19227,1838
19231,1830
19235,1840
19239,1840
19243,1843
19247,1840
19251,1840
19255,1850
19259,1862
19263,1853
19267,1855
19271,1865
19275,1875
19279,1884
19283,1883
19287,1881
19291,1900
19295,1905
19299,1908
19303,1919
19307,1936
19311,1946
19315,1950
19319,1956
19323,1972
19327,1987
19331,2000
19335,2002
19339,2031
19343,2047
19347,2065
19351,2082
19355,2095
19359,2112
19363,2115
19367,2118
19371,2131
19375,2151
19379,2150
19383,2145
19387,2145
19391,2128
19395,2098
19399,2056
19403,2011
19407,1985
19411,1942
19415,1905
19419,1874
19423,1861
19427,1847
19431,1829
19435,1819
19439,1821
19443,1824
19447,1813
19451,1798
19455,1808
19459,1813
19463,1809
19467,1806
19471,1814
19475,1825
19479,1826
19483,1821
19487,1815
19491,1827
19495,1829
19499,1826
19503,1831
19507,1842
19511,1843
19515,1840
19519,1850
19523,1854
19527,1854
19531,1843
19535,1839
19539,1854
19543,1862
19547,1860
19551,1855
19555,1869
19559,1872
19563,1871
19567,1863
19571,1871
19575,1883
19579,1872
19583,1867
19587,1866
19591,1875
19595,1883
19599,1878
19603,1875
19607,1879
19611,1885
19615,1879
19619,1876
19623,1888
19627,1891
19631,1883
19635,1882
19639,1892
19643,1894
19647,1895
19651,1889
19655,1893
19659,1905
19663,1894
19667,1889
19671,1899
19675,1904
19679,1904
19683,1899
19687,1904
19691,1916
19695,1909
19699,1906
19703,1901
19707,1913
19711,1918
19715,1919
19719,1947
19723,1987
19727,2003
19731,1993
19735,1972
19739,1965
19743,1963
19747,1951
19751,1934
19755,1931
19759,1927
19763,1925
19767,1917
19771,1921
19775,1935
19779,1935
19783,1927
19787,1934
19791,1936
19795,1936
19799,1936
19803,1936
19807,1946
19811,1949
19815,1919
19819,1839
19823,1756
19827,1765
19831,2003
19835,2570
19839,3382
19843,4095
19847,4095
19851,4037
19855,3109
19859,2412
19863,2042
19867,1938
19871,1942
19875,1951
19879,1935
19883,1904
19887,1878
19891,1867
19895,1856
19899,1845
19903,1840
19907,1843
19911,1855
19915,1856
19919,1860
19923,1863
19927,1869
19931,1871
19935,1866
19939,1875
19943,1879
19947,1891
19951,1855
19955,1898
19959,1899
19963,1894
19967,1904
19971,1898
19975,1926
19979,1941
19983,1920
19987,1905
19991,1965
19995,1942
