Timestamp,ECG Data
4,2138
7,2155
11,2176
15,2187
19,2183
23,2189
27,2210
31,2224
35,2228
39,2231
43,2240
47,2234
51,2203
55,2173
59,2145
63,2103
67,2064
71,2002
75,1979
79,1938
83,1903
87,1871
91,1863
95,1857
99,1834
103,1817
107,1825
111,1834
115,1835
119,1813
123,1822
127,1835
131,1834
135,1823
139,1830
143,1837
147,1841
151,1838
155,1834
159,1854
163,1811
167,1918
171,1840
175,1838
179,1867
183,1870
187,1868
191,1867
195,1869
199,1870
203,1871
207,1894
211,1865
215,1870
219,1862
223,1872
227,1878
231,1882
235,1872
239,1866
243,1882
247,1877
251,1872
255,1868
259,1872
263,1873
267,1875
271,1872
275,1882
279,1899
283,1884
287,1870
291,1878
295,1882
299,1887
303,1882
307,1894
311,1904
315,1900
319,1889
323,1897
327,1901
331,1898
335,1892
339,1888
343,1909
347,1915
351,1905
355,1907
359,1911
363,1917
367,1906
371,1905
375,1903
379,1918
383,1906
387,1904
391,1907
395,1907
399,1907
403,1911
407,1917
411,1925
415,1925
419,1923
423,1920
427,1929
431,1934
435,1920
439,1923
443,1928
447,1936
451,1925
455,1932
459,1942
463,1966
467,1969
471,1994
475,2013
479,2031
483,2021
487,2014
491,2011
495,2002
499,1985
503,1961
507,1947
511,1939
515,1936
519,1932
523,1935
527,1939
531,1942
535,1936
539,1936
543,1941
547,1943
551,1936
555,1932
559,1935
563,1947
567,1945
571,1938
575,1897
579,1808
583,1725
587,1776
591,2112
595,2686
599,3483
603,4095
607,4095
611,3676
615,2850
619,2270
623,2002
627,1954
631,1959
635,1948
639,1927
643,1920
647,1903
651,1875
655,1871
659,1863
663,1865
667,1859
671,1856
675,1856
679,1861
683,1861
687,1868
691,1870
695,1877
699,1880
703,1873
707,1883
711,1904
715,1904
719,1890
723,1895
727,1912
731,1920
735,1926
739,1919
743,1940
747,1952
751,1949
755,1957
759,1963
763,1980
767,1991
771,1990
775,2000
779,2013
783,2017
787,2016
791,2030
795,2046
799,2058
803,2064
807,2080
811,2103
815,2112
819,2111
823,2133
827,2151
831,2149
835,2159
839,2161
843,2185
847,2192
851,2194
855,2202
859,2209
863,2223
867,2219
871,2197
875,2192
879,2159
883,2112
887,2067
891,2029
895,2006
899,1958
903,1925
907,1890
911,1872
915,1857
919,1833
923,1826
927,1830
931,1822
935,1808
939,1808
943,1814
947,1814
951,1807
955,1807
959,1827
963,1833
967,1830
971,1818
975,1839
979,1847
983,1838
987,1840
991,1837
995,1850
999,1846
1003,1840
1007,1851
1011,1860
1015,1856
1019,1856
1023,1863
1027,1869
1031,1865
1035,1855
1039,1844
1043,1862
1047,1877
1051,1867
1055,1852
1059,1862
1063,1869
1067,1863
1071,1857
1075,1869
1079,1875
1083,1875
1087,1872
1091,1875
1095,1886
1099,1872
1103,1860
1107,1863
1111,1882
1115,1902
1119,1879
1123,1887
1127,1897
1131,1922
1135,1899
1139,1904
1143,1891
1147,1892
1151,1888
1155,1887
1159,1901
1163,1903
1167,1902
1171,1903
1175,1898
1179,1904
1183,1901
1187,1904
1191,1901
1195,1914
1199,1906
1203,1925
1207,1947
1211,1977
1215,1992
1219,1987
1223,1989
1227,1991
1231,1981
1235,1961
1239,1950
1243,1945
1247,1934
1251,1915
1255,1906
1259,1917
1263,1931
1267,1923
1271,1906
1275,1919
1279,1922
1283,1914
1287,1920
1291,1923
1295,1927
1299,1921
1303,1919
1307,1934
1311,1925
1315,1894
1319,1789
1323,1712
1327,1776
1331,2113
1335,2685
1339,3482
1343,4095
1347,4095
1351,3613
1355,2846
1359,2291
1363,2032
1367,1952
1371,1947
1375,1958
1379,1941
1383,1915
1387,1883
1391,1882
1395,1872
1399,1869
1403,1853
1407,1858
1411,1871
1415,1878
1419,1865
1423,1874
1427,1891
1431,1890
1435,1889
1439,1895
1443,1905
1447,1919
1451,1918
1455,1917
1459,1936
1463,1936
1467,1936
1471,1937
1475,1952
1479,1959
1483,1951
1487,1951
1491,1959
1495,1978
1499,1979
1503,1985
1507,1984
1511,2001
1515,1999
1519,2002
1523,2010
1527,2026
1531,2039
1535,2043
1539,2060
1543,2075
1547,2087
1551,2099
1555,2104
1559,2130
1563,2146
1567,2155
1571,2158
1575,2179
1579,2205
1583,2204
1587,2220
1591,2234
1595,2249
1599,2245
1603,2239
1607,2246
1611,2229
1615,2204
1619,2160
1623,2122
1627,2082
1631,2033
1635,1987
1639,1957
1643,1929
1647,1909
1651,1878
1655,1863
1659,1860
1663,1863
1667,1850
1671,1839
1675,1840
1679,1851
1683,1845
1687,1845
1691,1853
1695,1867
1699,1851
1703,1853
1707,1859
1711,1865
1715,1871
1719,1855
1723,1871
1727,1876
1731,1874
1735,1877
1739,1874
1743,1874
1747,1881
1751,1874
1755,1877
1759,1894
1763,1894
1767,1895
1771,1895
1775,1903
1779,1898
1783,1898
1787,1888
1791,1893
1795,1886
1799,1890
1803,1874
1807,1888
1811,1889
1815,1889
1819,1877
1823,1891
1827,1892
1831,1897
1835,1882
1839,1879
1843,1891
1847,1897
1851,1882
1855,1889
1859,1891
1863,1903
1867,1893
1871,1879
1875,1897
1879,1904
1883,1900
1887,1884
1891,1899
1895,1905
1899,1899
1903,1893
1907,1891
1911,1904
1915,1910
1919,1904
1923,1902
1927,1913
1931,1920
1935,1927
1939,1949
1943,1979
1947,2000
1951,1995
1955,1982
1959,1972
1963,1971
1967,1963
1971,1934
1975,1933
1979,1929
1983,1922
1987,1913
1991,1919
1995,1934
1999,1918
2003,1917
2007,1921
2011,1919
2015,1919
2019,1958
2023,1909
2027,1915
2031,1930
2035,1909
2039,1904
2043,1847
2047,1741
2051,1661
2055,1844
2059,2316
2063,3051
2067,4095
2071,4095
2075,4095
2079,4095
2083,3185
2087,2448
2091,2065
2095,1946
2099,1925
2103,1911
2107,1915
2111,1863
2115,1834
2119,1807
2123,1812
2127,1809
2131,1808
2135,1803
2139,1802
2143,1811
2147,1815
2151,1804
2155,1811
2159,1834
2163,1847
2167,1852
2171,1840
2175,1840
2179,1840
2183,1849
2187,1855
2191,1865
2195,1872
2199,1867
2203,1861
2207,1870
2211,1886
2215,1899
2219,1897
2223,1904
2227,1904
2231,1921
2235,1927
2239,1931
2243,1954
2247,1957
2251,1963
2255,1968
2259,1993
2263,2001
2267,2011
2271,2031
2275,2059
2279,2075
2283,2096
2287,2109
2291,2130
2295,2157
2299,2170
2303,2186
2307,2195
2311,2217
2315,2224
2319,2224
2323,2238
2327,2245
2331,2255
2335,2236
2339,2209
2343,2185
2347,2133
2351,2095
2355,2055
2359,2000
2363,1967
2367,1920
2371,1893
2375,1874
2379,1870
2383,1856
2387,1831
2391,1835
2395,1846
2399,1841
2403,1838
2407,1831
2411,1827
2415,1837
2419,1838
2423,1836
2427,1843
2431,1856
2435,1860
2439,1874
2443,1879
2447,1883
2451,1885
2455,1876
2459,1877
2463,1877
2467,1893
2471,1901
2475,1904
2479,1909
2483,1909
2487,1904
2491,1910
2495,1922
2499,1920
2503,1925
2507,1936
2511,1937
2515,1945
2519,1951
2523,1963
2527,1970
2531,1958
2535,1936
2539,1937
2543,1966
2547,1974
2551,1969
2555,1968
2559,1973
2563,1984
2567,1988
2571,1981
2575,1984
2579,1991
2583,1987
2587,1986
2591,2000
2595,2002
2599,2013
2603,2003
2607,2010
2611,2010
2615,2012
2619,2015
2623,2015
2627,2025
2631,2028
2635,2017
2639,2013
2643,2032
2647,2055
2651,2061
2655,2040
2659,2040
2663,2042
2667,2030
2671,2029
2675,2058
2679,2059
2683,2036
2687,2027
2691,2047
2695,2078
2699,2099
2703,2118
2707,2141
2711,2165
2715,2166
2719,2142
2723,2133
2727,2138
2731,2133
2735,2110
2739,2095
2743,2097
2747,2108
2751,2095
2755,2098
2759,2112
2763,2127
2767,2119
2771,2125
2775,2127
2779,2124
2783,2123
2787,2112
2791,2119
2795,2138
2799,2147
2803,2085
2807,1952
2811,1856
2815,1929
2819,2353
2823,3152
2827,4095
2831,4095
2835,4095
2839,4095
2843,4095
2847,3283
2851,2549
2855,2190
2859,2124
2863,2133
2867,2138
2871,2109
2875,2086
2879,2064
2883,2046
2887,2023
2891,2019
2895,2021
2899,2021
2903,2026
2907,2042
2911,2041
2915,2023
2919,2015
2923,2018
2927,2059
2931,2078
2935,2075
2939,2075
2943,2068
2947,2061
2951,2096
2955,2096
2959,2112
2963,2110
2967,2110
2971,2099
2975,2096
2979,2129
2983,2101
2987,2099
2991,2171
2995,2166
2999,2181
3003,2165
3007,2184
3011,2195
3015,2197
3019,2191
3023,2209
3027,2246
3031,2255
3035,2251
3039,2274
3043,2303
3047,2304
3051,2302
3055,2307
3059,2331
3063,2352
3067,2352
3071,2361
3075,2376
3079,2391
3083,2397
3087,2397
3091,2407
3095,2411
3099,2395
3103,2338
3107,2304
3111,2262
3115,2214
3119,2160
3123,2111
3127,2075
3131,2045
3135,2003
3139,1972
3143,1957
3147,1959
3151,1951
3155,1958
3159,1957
3163,1953
3167,1955
3171,1926
3175,1917
3179,1929
3183,1947
3187,1959
3191,1974
3195,1970
3199,1925
3203,1872
3207,1893
3211,1939
3215,1979
3219,2002
3223,1999
3227,1995
3231,1974
3235,1956
3239,1943
3243,1950
3247,1943
3251,1949
3255,1956
3259,1968
3263,1966
3267,1947
3271,1937
3275,1958
3279,1953
3283,1944
3287,1940
3291,1936
3295,1930
3299,1921
3303,1903
3307,1908
3311,1920
3315,1918
3319,1905
3323,1906
3327,1924
3331,1923
3335,1901
3339,1885
3343,1893
3347,1901
3351,1903
3355,1886
3359,1898
3363,1902
3367,1893
3371,1894
3375,1905
3379,1889
3383,1879
3387,1863
3391,1890
3395,1902
3399,1904
3403,1910
3407,1951
3411,1973
3415,1969
3419,1930
3423,1925
3427,1923
3431,1903
3435,1856
3439,1840
3443,1850
3447,1856
3451,1834
3455,1822
3459,1841
3463,1859
3467,1847
3471,1836
3475,1840
3479,1838
3483,1820
3487,1779
3491,1792
3495,1813
3499,1850
3503,1839
3507,1755
3511,1621
3515,1507
3519,1601
3523,2062
3527,2754
3531,3754
3535,4095
3539,4095
3543,3728
3547,2782
3551,2160
3555,1905
3559,1861
3563,1842
3567,1809
3571,1770
3575,1744
3579,1735
3583,1698
3587,1677
3591,1699
3595,1725
3599,1727
3603,1690
3607,1681
3611,1693
3615,1680
3619,1678
3623,1679
3627,1674
3631,1683
3635,1693
3639,1711
3643,1711
3647,1706
3651,1701
3655,1685
3659,1685
3663,1694
3667,1710
3671,1729
3675,1745
3679,1729
3683,1711
3687,1712
3691,1730
3695,1755
3699,1746
3703,1728
3707,1747
3711,1785
3715,1786
3719,1766
3723,1775
3727,1786
3731,1795
3735,1818
3739,1848
3743,1856
3747,1847
3751,1862
3755,1886
3759,1909
3763,1904
3767,1895
3771,1906
3775,1943
3779,1963
3783,1964
3787,1961
3791,1976
3795,1983
3799,1958
3803,1918
3807,1900
3811,1882
3815,1843
3819,1776
3823,1730
3827,1695
3831,1674
3835,1617
3839,1601
3843,1604
3847,1600
3851,1584
3855,1579
3859,1584
3863,1581
3867,1492
3871,1566
3875,1584
3879,1556
3883,1597
3887,1595
3891,1648
3895,1631
3899,1618
3903,1645
3907,1651
3911,1655
3915,1627
3919,1654
3923,1651
3927,1674
3931,1670
3935,1658
3939,1658
3943,1678
3947,1680
3951,1667
3955,1680
3959,1691
3963,1687
3967,1679
3971,1669
3975,1680
3979,1701
3983,1674
3987,1677
3991,1698
3995,1717
3999,1712
4003,1686
4007,1685
4011,1703
4015,1696
4019,1671
4023,1677
4027,1701
4031,1732
4035,1727
4039,1712
4043,1721
4047,1716
4051,1711
4055,1699
4059,1729
4063,1743
4067,1739
4071,1719
4075,1737
4079,1740
4083,1735
4087,1738
4091,1763
4095,1808
4099,1840
4103,1871
4107,1872
4111,1867
4115,1841
4119,1826
4123,1819
4127,1809
4131,1796
4135,1776
4139,1766
4143,1792
4147,1807
4151,1799
4155,1795
4159,1795
4163,1810
4167,1813
4171,1825
4175,1814
4179,1817
4183,1811
4187,1808
4191,1835
4195,1808
4199,1707
4203,1547
4207,1488
4211,1689
4215,2282
4219,3135
4223,4095
4227,4095
4231,4095
4235,4095
4239,3141
4243,2391
4247,1999
4251,1859
4255,1833
4259,1840
4263,1839
4267,1805
4271,1767
4275,1774
4279,1776
4283,1765
4287,1753
4291,1760
4295,1775
4299,1763
4303,1753
4307,1776
4311,1779
4315,1781
4319,1779
4323,1791
4327,1802
4331,1805
4335,1798
4339,1792
4343,1811
4347,1840
4351,1841
4355,1869
4359,1887
4363,1904
4367,1895
4371,1890
4375,1904
4379,1913
4383,1915
4387,1909
4391,1933
4395,1941
4399,1943
4403,1957
4407,1985
4411,2026
4415,2042
4419,2037
4423,2043
4427,2064
4431,2059
4435,2047
4439,2069
4443,2110
4447,2143
4451,2155
4455,2155
4459,2147
4463,2151
4467,2165
4471,2186
4475,2205
4479,2224
4483,2225
4487,2215
4491,2192
4495,2151
4499,2096
4503,2063
4507,2032
4511,2032
4515,2007
4519,1968
4523,1930
4527,1898
4531,1876
4535,1844
4539,1830
4543,1827
4547,1835
4551,1821
4555,1815
4559,1814
4563,1817
4567,1822
4571,1829
4575,1831
4579,1808
4583,1812
4587,1822
4591,1854
4595,1894
4599,1893
4603,1875
4607,1878
4611,1882
4615,1883
4619,1883
4623,1882
4627,1879
4631,1887
4635,1885
4639,1886
4643,1902
4647,1899
4651,1890
4655,1888
4659,1904
4663,1905
4667,1900
4671,1891
4675,1901
4679,1913
4683,1917
4687,1911
4691,1921
4695,1910
4699,1902
4703,1895
4707,1902
4711,1907
4715,1903
4719,1897
4723,1904
4727,1913
4731,1918
4735,1904
4739,1899
4743,1918
4747,1939
4751,1937
4755,1951
4759,1970
4763,2006
4767,2023
4771,2018
4775,2013
4779,1987
4783,1972
4787,1941
4791,1932
4795,1984
4799,1932
4803,1904
4807,1910
4811,1920
4815,1915
4819,1903
4823,1910
4827,1958
4831,1920
4835,1938
4839,1913
4843,1929
4847,1921
4851,1917
4855,1903
4859,1837
4863,1733
4867,1659
4871,1793
4875,2267
4879,2998
4883,4095
4887,4095
4891,4095
4895,3924
4899,2912
4903,2267
4907,1981
4911,1918
4915,1910
4919,1894
4923,1890
4927,1875
4931,1859
4935,1829
4939,1813
4943,1812
4947,1811
4951,1815
4955,1827
4959,1836
4963,1835
4967,1811
4971,1803
4975,1802
4979,1820
4983,1818
4987,1808
4991,1825
4995,1844
4999,1851
5003,1856
5007,1878
5011,1878
5015,1883
5019,1856
5023,1861
5027,1879
5031,1889
5035,1893
5039,1907
5043,1909
5047,1919
5051,1925
5055,1930
5059,1952
5063,1941
5067,1937
5071,1935
5075,1962
5079,1970
5083,1979
5087,1984
5091,2002
5095,2019
5099,2033
5103,2039
5107,2073
5111,2093
5115,2096
5119,2096
5123,2109
5127,2135
5131,2147
5135,2154
5139,2160
5143,2171
5147,2160
5151,2134
5155,2111
5159,2074
5163,2026
5167,1982
5171,1939
5175,1909
5179,1872
5183,1824
5187,1786
5191,1776
5195,1761
5199,1750
5203,1744
5207,1742
5211,1751
5215,1762
5219,1767
5223,1756
5227,1761
5231,1771
5235,1778
5239,1775
5243,1789
5247,1781
5251,1784
5255,1786
5259,1808
5263,1826
5267,1818
5271,1809
5275,1819
5279,1842
5283,1839
5287,1838
5291,1840
5295,1842
5299,1850
5303,1846
5307,1867
5311,1872
5315,1873
5319,1866
5323,1863
5327,1867
5331,1872
5335,1878
5339,1888
5343,1903
5347,1907
5351,1911
5355,1907
5359,1908
5363,1913
5367,1925
5371,1934
5375,1934
5379,1951
5383,1941
5387,1957
5391,1981
5395,2022
5399,2053
5403,2073
5407,2083
5411,2090
5415,2070
5419,2064
5423,2062
5427,2045
5431,2020
5435,2003
5439,2031
5443,2054
5447,2038
5451,2029
5455,2031
5459,2047
5463,2065
5467,2064
5471,2063
5475,2064
5479,2070
5483,2069
5487,2053
5491,2067
5495,2089
5499,2080
5503,2019
5507,1939
5511,1874
5515,1940
5519,2255
5523,2829
5527,3797
5531,4095
5535,4095
5539,3999
5543,3087
5547,2459
5551,2178
5555,2111
5559,2126
5563,2145
5567,2128
5571,2093
5575,2078
5579,2047
5583,2043
5587,2035
5591,2032
5595,2031
5599,2021
5603,2025
5607,2030
5611,2029
5615,2025
5619,2032
5623,2055
5627,2070
5631,2079
5635,2070
5639,2077
5643,2096
5647,2112
5651,2112
5655,2113
5659,2143
5663,2190
5667,2223
5671,2244
5675,2281
5679,2299
5683,2311
5687,2315
5691,2329
5695,2346
5699,2355
5703,2362
5707,2379
5711,2398
5715,2411
5719,2352
5723,2427
5727,2429
5731,2443
5735,2437
5739,2419
5743,2459
5747,2493
5751,2480
5755,2448
5759,2455
5763,2515
5767,2544
5771,2549
5775,2539
5779,2513
5783,2499
5787,2484
5791,2467
5795,2447
5799,2393
5803,2320
5807,2244
5811,2192
5815,2118
5819,2026
5823,1973
5827,1947
5831,1943
5835,1870
5839,1779
5843,1728
5847,1686
5851,1680
5855,1749
5859,1872
5863,1937
5867,1931
5871,1868
5875,1829
5879,1872
5883,1904
5887,1917
5891,1881
5895,1785
5899,1648
5903,1552
5907,1558
5911,1571
5915,1493
5919,1420
5923,1488
5927,1719
5931,1851
5935,1853
5939,1921
5943,2110
5947,2288
5951,2309
5955,2212
5959,2085
5963,1963
5967,1857
5971,1718
5975,1600
5979,1488
5983,1379
5987,1447
5991,1599
5995,1596
5999,1483
6003,1520
6007,1792
6011,2000
6015,1990
6019,1906
6023,1904
6027,1931
6031,1937
6035,1943
6039,1981
6043,2015
6047,1994
6051,1901
6055,1821
6059,1811
6063,1830
6067,1777
6071,1680
6075,1647
6079,1702
6083,1835
6087,1954
6091,2003
6095,1953
6099,1872
6103,1867
6107,1921
6111,1985
6115,2015
6119,1994
6123,1969
6127,1963
6131,1943
6135,1906
6139,1850
6143,1744
6147,1652
6151,1577
6155,1581
6159,1776
6163,2245
6167,2898
6171,3920
6175,4095
6179,4090
6183,3177
6187,2402
6191,1963
6195,1849
6199,1863
6203,1875
6207,1858
6211,1809
6215,1773
6219,1750
6223,1729
6227,1716
6231,1718
6235,1724
6239,1744
6243,1763
6247,1753
6251,1735
6255,1712
6259,1711
6263,1707
6267,1698
6271,1697
6275,1723
6279,1740
6283,1733
6287,1712
6291,1706
6295,1714
6299,1712
6303,1696
6307,1701
6311,1714
6315,1715
6319,1708
6323,1726
6327,1758
6331,1778
6335,1775
6339,1785
6343,1819
6347,1835
6351,1837
6355,1840
6359,1878
6363,1913
6367,1937
6371,1968
6375,2000
6379,2023
6383,2033
6387,2042
6391,2079
6395,2114
6399,2127
6403,2128
6407,2147
6411,2171
6415,2183
6419,2189
6423,2201
6427,2224
6431,2213
6435,2191
6439,2198
6443,2229
6447,2211
6451,2143
6455,2075
6459,2015
6463,1952
6467,1887
6471,1817
6475,1781
6479,1762
6483,1737
6487,1712
6491,1698
6495,1696
6499,1680
6503,1662
6507,1659
6511,1661
6515,1648
6519,1638
6523,1645
6527,1648
6531,1648
6535,1631
6539,1627
6543,1634
6547,1637
6551,1627
6555,1626
6559,1628
6563,1639
6567,1643
6571,1645
6575,1648
6579,1655
6583,1653
6587,1650
6591,1655
6595,1665
6599,1678
6603,1674
6607,1674
6611,1680
6615,1682
6619,1678
6623,1679
6627,1685
6631,1680
6635,1675
6639,1663
6643,1651
6647,1653
6651,1663
6655,1686
6659,1712
6663,1771
6667,1771
6671,1775
6675,1773
6679,1774
6683,1747
6687,1726
6691,1712
6695,1645
6699,1622
6703,1581
6707,1552
6711,1558
6715,1585
6719,1616
6723,1644
6727,1677
6731,1681
6735,1681
6739,1678
6743,1677
6747,1681
6751,1688
6755,1695
6759,1709
6763,1696
6767,1630
6771,1498
6775,1390
6779,1425
6783,1779
6787,2414
6791,3266
6795,4095
6799,4095
6803,3839
6807,2937
6811,2279
6815,1951
6819,1849
6823,1833
6827,1822
6831,1799
6835,1775
6839,1755
6843,1755
6847,1751
6851,1753
6855,1757
6859,1771
6863,1773
6867,1769
6871,1769
6875,1767
6879,1776
6883,1771
6887,1762
6891,1759
6895,1763
6899,1756
6903,1742
6907,1739
6911,1751
6915,1754
6919,1743
6923,1737
6927,1749
6931,1756
6935,1753
6939,1758
6943,1775
6947,1787
6951,1787
6955,1785
6959,1798
6963,1821
6967,1825
6971,1823
6975,1834
6979,1857
6983,1870
6987,1877
6991,1893
6995,1919
6999,1929
7003,1943
7007,1961
7011,1982
7015,1997
7019,1999
7023,2004
7027,2023
7031,2034
7035,2044
7039,2043
7043,2065
7047,2091
7051,2078
7055,2059
7059,2057
7063,2022
7067,1981
7071,1925
7075,1873
7079,1835
7083,1787
7087,1731
7091,1710
7095,1697
7099,1679
7103,1659
7107,1642
7111,1645
7115,1647
7119,1645
7123,1639
7127,1652
7131,1655
7135,1649
7139,1648
7143,1658
7147,1654
7151,1663
7155,1663
7159,1675
7163,1679
7167,1664
7171,1655
7175,1653
7179,1671
7183,1666
7187,1651
7191,1655
7195,1661
7199,1662
7203,1652
7207,1654
7211,1659
7215,1664
7219,1659
7223,1655
7227,1663
7231,1663
7235,1657
7239,1651
7243,1663
7247,1671
7251,1662
7255,1654
7259,1662
7263,1663
7267,1666
7271,1657
7275,1653
7279,1664
7283,1653
7287,1643
7291,1664
7295,1695
7299,1727
7303,1744
7307,1766
7311,1776
7315,1755
7319,1734
7323,1727
7327,1741
7331,1728
7335,1697
7339,1679
7343,1682
7347,1685
7351,1683
7355,1683
7359,1685
7363,1686
7367,1676
7371,1675
7375,1682
7379,1692
7383,1679
7387,1675
7391,1680
7395,1693
7399,1680
7403,1625
7407,1525
7411,1407
7415,1392
7419,1691
7423,2343
7427,3243
7431,4095
7435,4095
7439,4095
7443,3443
7447,2545
7451,1999
7455,1786
7459,1745
7463,1735
7467,1697
7471,1657
7475,1638
7479,1632
7483,1616
7487,1598
7491,1601
7495,1610
7499,1606
7503,1607
7507,1616
7511,1639
7515,1647
7519,1646
7523,1648
7527,1662
7531,1669
7535,1679
7539,1676
7543,1692
7547,1709
7551,1700
7555,1697
7559,1726
7563,1746
7567,1749
7571,1744
7575,1733
7579,1795
7583,1787
7587,1789
7591,1795
7595,1854
7599,1841
7603,1846
7607,1862
7611,1919
7615,1895
7619,1881
7623,1899
7627,1947
7631,1962
7635,1958
7639,1959
7643,1993
7647,2018
7651,2020
7655,2025
7659,2047
7663,2074
7667,2070
7671,2071
7675,2096
7679,2113
7683,2113
7687,2099
7691,2098
7695,2097
7699,2074
7703,2006
7707,1963
7711,1921
7715,1887
7719,1834
7723,1796
7727,1779
7731,1761
7735,1734
7739,1710
7743,1717
7747,1718
7751,1702
7755,1701
7759,1712
7763,1725
7767,1728
7771,1716
7775,1734
7779,1747
7783,1745
7787,1729
7791,1729
7795,1733
7799,1739
7803,1723
7807,1727
7811,1750
7815,1756
7819,1743
7823,1744
7827,1753
7831,1769
7835,1769
7839,1765
7843,1781
7847,1792
7851,1776
7855,1773
7859,1783
7863,1807
7867,1807
7871,1794
7875,1799
7879,1818
7883,1818
7887,1808
7891,1822
7895,1840
7899,1841
7903,1825
7907,1831
7911,1855
7915,1865
7919,1855
7923,1853
7927,1856
7931,1854
7935,1840
7939,1845
7943,1878
7947,1903
7951,1920
7955,1936
7959,1966
7963,1980
7967,1961
7971,1930
7975,1936
7979,1946
7983,1924
7987,1902
7991,1898
7995,1911
7999,1921
8003,1911
8007,1916
8011,1936
8015,1946
8019,1937
8023,1946
8027,1968
8031,1968
8035,1958
8039,1956
8043,1978
8047,1997
8051,1975
8055,1900
8059,1776
8063,1658
8067,1685
8071,2061
8075,2800
8079,4044
8083,4095
8087,4095
8091,4095
8095,4087
8099,3026
8103,2353
8107,2055
8111,1987
8115,1985
8119,1968
8123,1943
8127,1933
8131,1920
8135,1904
8139,1885
8143,1893
8147,1902
8151,1897
8155,1888
8159,1909
8163,1923
8167,1926
8171,1920
8175,1934
8179,1950
8183,1942
8187,1936
8191,1957
8195,1977
8199,1963
8203,1946
8207,1965
8211,1991
8215,2003
8219,1990
8223,1989
8227,2022
8231,2027
8235,2022
8239,2018
8243,2047
8247,2063
8251,2061
8255,2061
8259,2082
8263,2111
8267,2107
8271,2103
8275,2119
8279,2145
8283,2160
8287,2154
8291,2174
8295,2202
8299,2215
8303,2214
8307,2224
8311,2251
8315,2269
8319,2266
8323,2271
8327,2295
8331,2313
8335,2303
8339,2291
8343,2303
8347,2289
8351,2240
8355,2192
8359,2160
8363,2128
8367,2081
8371,2016
8375,1997
8379,1986
8383,1958
8387,1924
8391,1917
8395,1922
8399,1917
8403,1901
8407,1903
8411,1921
8415,1918
8419,1903
8423,1904
8427,1931
8431,1939
8435,1925
8439,1936
8443,1965
8447,2009
8451,2019
8455,2017
8459,2027
8463,2019
8467,1998
8471,1968
8475,1980
8479,1984
8483,1964
8487,1936
8491,1939
8495,1950
8499,1947
8503,1930
8507,1921
8511,1939
8515,1937
8519,1915
8523,1909
8527,1922
8531,1936
8535,1904
8539,1892
8543,1917
8547,1920
8551,1917
8555,1906
8559,1918
8563,1934
8567,1931
8571,1917
8575,1925
8579,1936
8583,1936
8587,1917
8591,1923
8595,1935
8599,1943
8603,1937
8607,1947
8611,1994
8615,2014
8619,2012
8623,2001
8627,2004
8631,2000
8635,1981
8639,1965
8643,1955
8647,1948
8651,1930
8655,1908
8659,1923
8663,1946
8667,1938
8671,1921
8675,1920
8679,1933
8683,1929
8687,1915
8691,1919
8695,1934
8699,1935
8703,1920
8707,1915
8711,1909
8715,1821
8719,1664
8723,1630
8727,1925
8731,2591
8735,3492
8739,4095
8743,4095
8747,4095
8751,4095
8755,3109
8759,2402
8763,2046
8767,1926
8771,1893
8775,1887
8779,1869
8783,1838
8787,1798
8791,1786
8795,1801
8799,1786
8803,1765
8807,1773
8811,1783
8815,1786
8819,1775
8823,1777
8827,1803
8831,1808
8835,1791
8839,1783
8843,1805
8847,1823
8851,1808
8855,1798
8859,1819
8863,1831
8867,1828
8871,1813
8875,1826
8879,1850
8883,1844
8887,1833
8891,1840
8895,1860
8899,1871
8903,1860
8907,1865
8911,1889
8915,1902
8919,1890
8923,1892
8927,1921
8931,1938
8935,1938
8939,1939
8943,1970
8947,2000
8951,1994
8955,2000
8959,2029
8963,2062
8967,2067
8971,2064
8975,2087
8979,2111
8983,2123
8987,2126
8991,2139
8995,2157
8999,2155
9003,2129
9007,2111
9011,2098
9015,2062
9019,2005
9023,1958
9027,1935
9031,1904
9035,1856
9039,1829
9043,1822
9047,1819
9051,1797
9055,1775
9059,1783
9063,1797
9067,1785
9071,1776
9075,1790
9079,1802
9083,1796
9087,1777
9091,1788
9095,1805
9099,1808
9103,1783
9107,1783
9111,1799
9115,1810
9119,1802
9123,1802
9127,1819
9131,1830
9135,1809
9139,1807
9143,1824
9147,1838
9151,1824
9155,1808
9159,1829
9163,1850
9167,1840
9171,1820
9175,1829
9179,1850
9183,1850
9187,1828
9191,1839
9195,1853
9199,1853
9203,1840
9207,1840
9211,1856
9215,1857
9219,1841
9223,1840
9227,1858
9231,1862
9235,1842
9239,1835
9243,1852
9247,1868
9251,1863
9255,1849
9259,1860
9263,1869
9267,1854
9271,1843
9275,1872
9279,1904
9283,1922
9287,1931
9291,1939
9295,1954
9299,1936
9303,1907
9307,1899
9311,1911
9315,1897
9319,1871
9323,1856
9327,1874
9331,1881
9335,1871
9339,1860
9343,1878
9347,1890
9351,1883
9355,1867
9359,1884
9363,1900
9367,1889
9371,1873
9375,1886
9379,1894
9383,1840
9387,1703
9391,1600
9395,1687
9399,2128
9403,2835
9407,3888
9411,4095
9415,4095
9419,4095
9423,3538
9427,2691
9431,2176
9435,1949
9439,1883
9443,1894
9447,1884
9451,1872
9455,1807
9459,1804
9463,1822
9467,1787
9471,1775
9475,1794
9479,1792
9483,1793
9487,1778
9491,1790
9495,1812
9499,1819
9503,1790
9507,1791
9511,1819
9515,1835
9519,1823
9523,1829
9527,1831
9531,1853
9535,1840
9539,1837
9543,1851
9547,1870
9551,1851
9555,1846
9559,1869
9563,1890
9567,1874
9571,1869
9575,1879
9579,1904
9583,1906
9587,1893
9591,1904
9595,1935
9599,1948
9603,1936
9607,1951
9611,1978
9615,1988
9619,1990
9623,2003
9627,2032
9631,2063
9635,2053
9639,2062
9643,2089
9647,2114
9651,2114
9655,2117
9659,2137
9663,2162
9667,2159
9671,2139
9675,2134
9679,2128
9683,2099
9687,2043
9691,2003
9695,1987
9699,1949
9703,1899
9707,1867
9711,1863
9715,1851
9719,1820
9723,1813
9727,1823
9731,1835
9735,1811
9739,1808
9743,1821
9747,1826
9751,1821
9755,1808
9759,1827
9763,1839
9767,1835
9771,1833
9775,1844
9779,1853
9783,1850
9787,1833
9791,1839
9795,1856
9799,1863
9803,1842
9807,1841
9811,1862
9815,1863
9819,1849
9823,1845
9827,1863
9831,1873
9835,1863
9839,1856
9843,1872
9847,1887
9851,1873
9855,1866
9859,1872
9863,1895
9867,1885
9871,1873
9875,1882
9879,1905
9883,1895
9887,1887
9891,1895
9895,1910
9899,1917
9903,1904
9907,1897
9911,1919
9915,1923
9919,1904
9923,1904
9927,1920
9931,1929
9935,1921
9939,1914
9943,1927
9947,1941
9951,1931
9955,1914
9959,1922
9963,1927
9967,1926
9971,1923
9975,1938
9979,1980
9983,2002
9987,2006
9991,2021
9995,2029
9999,2017
10003,1993
10007,1981
10011,1987
10015,1981
10019,1958
10023,1947
10027,1963
10031,1968
10035,1959
10039,1954
10043,1963
10047,1971
10051,1965
10055,1947
10059,1966
10063,1983
10067,1985
10071,1971
10075,1977
10079,1971
10083,1894
10087,1753
10091,1703
10095,1930
10099,2512
10103,3307
10107,4095
10111,4095
10115,4095
10119,4046
10123,3056
10127,2415
10131,2107
10135,1997
10139,1980
10143,1974
10147,1964
10151,1929
10155,1899
10159,1895
10163,1898
10167,1888
10171,1876
10175,1881
10179,1896
10183,1893
10187,1879
10191,1883
10195,1908
10199,1909
10203,1899
10207,1899
10211,1911
10215,1926
10219,1922
10223,1920
10227,1934
10231,1936
10235,1932
10239,1920
10243,1937
10247,1959
10251,1947
10255,1936
10259,1951
10263,1965
10267,1968
10271,1957
10275,1967
10279,1991
10283,2000
10287,1996
10291,2005
10295,2027
10299,2039
10303,2034
10307,2041
10311,2070
10315,2096
10319,2091
10323,2093
10327,2119
10331,2140
10335,2138
10339,2143
10343,2171
10347,2192
10351,2195
10355,2182
10359,2201
10363,2185
10367,2211
10371,2214
10375,2208
10379,2204
10383,2176
10387,2123
10391,2081
10395,2064
10399,2032
10403,1984
10407,1978
10411,1966
10415,1966
10419,1903
10423,1888
10427,1892
10431,1905
10435,1887
10439,1872
10443,1889
10447,1902
10451,1898
10455,1875
10459,1885
10463,1898
10467,1899
10471,1884
10475,1894
10479,1913
10483,1909
10487,1891
10491,1902
10495,1910
10499,1925
10503,1917
10507,1899
10511,1920
10515,1927
10519,1906
10523,1904
10527,1922
10531,1936
10535,1920
10539,1909
10543,1920
10547,1935
10551,1923
10555,1913
10559,1927
10563,1938
10567,1936
10571,1918
10575,1921
10579,1941
10583,1945
10587,1933
10591,1935
10595,1950
10599,1950
10603,1936
10607,1930
10611,1949
10615,1967
10619,1946
10623,1935
10627,1947
10631,1963
10635,1946
10639,1936
10643,1947
10647,1963
10651,1952
10655,1941
10659,1952
10663,1968
10667,1966
10671,1940
10675,1941
10679,1967
10683,1967
10687,1967
10691,1997
10695,2034
10699,2054
10703,2031
10707,2010
10711,2016
10715,2018
10719,1997
10723,1968
10727,1971
10731,1969
10735,1971
10739,1953
10743,1962
10747,1978
10751,1985
10755,1968
10759,1974
10763,1987
10767,1978
10771,1959
10775,1967
10779,1984
10783,1985
10787,1946
10791,1865
10795,1767
10799,1747
10803,1968
10807,2532
10811,3347
10815,4095
10819,4095
10823,4095
10827,3475
10831,2715
10835,2223
10839,2018
10843,1991
10847,1999
10851,1979
10855,1936
10859,1918
10863,1911
10867,1895
10871,1871
10875,1872
10879,1883
10883,1887
10887,1867
10891,1867
10895,1889
10899,1899
10903,1885
10907,1883
10911,1885
10915,1899
10919,1885
10923,1883
10927,1903
10931,1920
10935,1907
10939,1894
10943,1911
10947,1931
10951,1919
10955,1904
10959,1919
10963,1936
10967,1935
10971,1922
10975,1935
10979,1965
10983,1965
10987,1953
10991,1961
10995,1983
10999,1986
11003,1977
11007,1983
11011,2014
11015,2036
11019,2032
11023,2031
11027,2064
11031,2083
11035,2082
11039,2078
11043,2098
11047,2128
11051,2128
11055,2113
11059,2129
11063,2160
11067,2165
11071,2155
11075,2163
11079,2179
11083,2179
11087,2145
11091,2111
11095,2086
11099,2062
11103,2005
11107,1964
11111,1941
11115,1920
11119,1887
11123,1862
11127,1859
11131,1863
11135,1849
11139,1828
11143,1846
11147,1854
11151,1841
11155,1834
11159,1840
11163,1858
11167,1861
11171,1844
11175,1847
11179,1870
11183,1869
11187,1850
11191,1853
11195,1871
11199,1878
11203,1857
11207,1848
11211,1869
11215,1879
11219,1872
11223,1855
11227,1863
11231,1879
11235,1871
11239,1856
11243,1861
11247,1872
11251,1871
11255,1851
11259,1861
11263,1881
11267,1872
11271,1861
11275,1866
11279,1883
11283,1894
11287,1871
11291,1865
11295,1907
11299,1893
11303,1874
11307,1872
11311,1888
11315,1893
11319,1867
11323,1863
11327,1917
11331,1870
11335,1899
11339,1890
11343,1872
11347,1905
11351,1902
11355,1885
11359,1904
11363,1910
11367,1910
11371,1887
11375,1885
11379,1910
11383,1933
11387,1936
11391,1968
11395,2000
11399,2010
11403,1975
11407,1943
11411,1955
11415,1958
11419,1925
11423,1904
11427,1906
11431,1919
11435,1914
11439,1904
11443,1920
11447,1931
11451,1921
11455,1903
11459,1910
11463,1935
11467,1934
11471,1907
11475,1919
11479,1943
11483,1932
11487,1856
11491,1753
11495,1711
11499,1843
11503,2282
11507,2945
11511,3952
11515,4095
11519,4095
11523,3269
11527,2603
11531,2178
11535,2000
11539,1957
11543,1968
11547,1965
11551,1937
11555,1893
11559,1887
11563,1877
11567,1866
11571,1840
11575,1845
11579,1872
11583,1878
11587,1863
11591,1858
11595,1875
11599,1877
11603,1858
11607,1856
11611,1879
11615,1899
11619,1888
11623,1872
11627,1891
11631,1909
11635,1908
11639,1892
11643,1905
11647,1922
11651,1923
11655,1904
11659,1910
11663,1941
11667,1941
11671,1923
11675,1930
11679,1953
11683,1962
11687,1952
11691,1955
11695,1974
11699,1989
11703,1987
11707,1990
11711,2012
11715,2026
11719,2010
11723,2009
11727,2034
11731,2067
11735,2066
11739,2058
11743,2074
11747,2098
11751,2105
11755,2091
11759,2107
11763,2134
11767,2143
11771,2128
11775,2129
11779,2137
11783,2128
11787,2081
11791,2038
11795,2019
11799,1989
11803,1942
11807,1913
11811,1893
11815,1895
11819,1865
11823,1840
11827,1840
11831,1858
11835,1850
11839,1837
11843,1840
11847,1856
11851,1840
11855,1834
11859,1840
11863,1857
11867,1859
11871,1844
11875,1859
11879,1872
11883,1877
11887,1858
11891,1853
11895,1869
11899,1872
11903,1859
11907,1852
11911,1874
11915,1887
11919,1871
11923,1859
11927,1874
11931,1885
11935,1884
11939,1863
11943,1874
11947,1891
11951,1881
11955,1859
11959,1872
11963,1901
11967,1900
11971,1882
11975,1888
11979,1902
11983,1893
11987,1881
11991,1885
11995,1900
11999,1907
12003,1889
12007,1883
12011,1899
12015,1910
12019,1901
12023,1893
12027,1902
12031,1916
12035,1907
12039,1890
12043,1891
12047,1911
12051,1924
12055,1936
12059,1968
12063,1989
12067,1987
12071,1953
12075,1940
12079,1955
12083,1946
12087,1911
12091,1895
12095,1909
12099,1913
12103,1901
12107,1891
12111,1913
12115,1927
12119,1915
12123,1902
12127,1907
12131,1921
12135,1926
12139,1904
12143,1918
12147,1936
12151,1918
12155,1830
12159,1744
12163,1744
12167,1921
12171,2338
12175,2960
12179,3813
12183,4095
12187,3477
12191,2800
12195,2291
12199,2032
12203,1942
12207,1932
12211,1955
12215,1930
12219,1914
12223,1870
12227,1885
12231,1882
12235,1886
12239,1867
12243,1850
12247,1889
12251,1851
12255,1860
12259,1859
12263,1836
12267,1887
12271,1873
12275,1875
12279,1903
12283,1910
12287,1899
12291,1887
12295,1904
12299,1909
12303,1901
12307,1903
12311,1919
12315,1929
12319,1925
12323,1923
12327,1940
12331,1950
12335,1954
12339,1939
12343,1953
12347,1978
12351,1974
12355,1964
12359,1975
12363,1999
12367,2003
12371,1993
12375,1993
12379,2031
12383,2047
12387,2029
12391,2027
12395,2064
12399,2070
12403,2064
12407,2053
12411,2079
12415,2095
12419,2093
12423,2094
12427,2111
12431,2130
12435,2133
12439,2119
12443,2127
12447,2127
12451,2096
12455,2043
12459,2006
12463,1990
12467,1966
12471,1925
12475,1902
12479,1901
12483,1887
12487,1852
12491,1835
12495,1850
12499,1857
12503,1835
12507,1830
12511,1840
12515,1849
12519,1840
12523,1835
12527,1851
12531,1859
12535,1853
12539,1831
12543,1847
12547,1861
12551,1866
12555,1852
12559,1857
12563,1872
12567,1871
12571,1852
12575,1843
12579,1862
12583,1867
12587,1854
12591,1851
12595,1872
12599,1873
12603,1862
12607,1845
12611,1868
12615,1877
12619,1870
12623,1853
12627,1866
12631,1883
12635,1871
12639,1859
12643,1862
12647,1885
12651,1872
12655,1856
12659,1857
12663,1881
12667,1888
12671,1872
12675,1869
12679,1888
12683,1899
12687,1883
12691,1871
12695,1887
12699,1903
12703,1899
12707,1915
12711,1958
12715,1975
12719,1956
12723,1927
12727,1920
12731,1929
12735,1920
12739,1893
12743,1891
12747,1897
12751,1894
12755,1879
12759,1887
12763,1903
12767,1911
12771,1895
12775,1888
12779,1904
12783,1907
12787,1898
12791,1894
12795,1911
12799,1922
12803,1890
12807,1809
12811,1744
12815,1746
12819,1938
12823,2398
12827,3053
12831,3890
12835,4031
12839,3363
12843,2752
12847,2287
12851,2031
12855,1937
12859,1934
12863,1950
12867,1936
12871,1900
12875,1875
12879,1881
12883,1875
12887,1853
12891,1843
12895,1858
12899,1872
12903,1858
12907,1849
12911,1861
12915,1879
12919,1872
12923,1858
12927,1872
12931,1901
12935,1888
12939,1868
12943,1881
12947,1904
12951,1903
12955,1885
12959,1887
12963,1909
12967,1920
12971,1904
12975,1903
12979,1919
12983,1931
12987,1923
12991,1915
12995,1943
12999,1954
13003,1939
13007,1937
13011,1955
13015,1974
13019,1970
13023,1968
13027,1981
13031,2002
13035,2000
13039,1986
13043,2000
13047,2026
13051,2031
13055,2019
13059,2032
13063,2064
13067,2069
13071,2054
13075,2057
13079,2087
13083,2107
13087,2094
13091,2086
13095,2099
13099,2096
13103,2063
13107,2016
13111,2002
13115,1989
13119,1952
13123,1905
13127,1890
13131,1890
13135,1873
13139,1781
13143,1837
13147,1851
13151,1863
13155,1840
13159,1843
13163,1860
13167,1866
13171,1853
13175,1872
13179,1882
13183,1873
13187,1873
13191,1899
13195,1895
13199,1883
13203,1870
13207,1855
13211,1872
13215,1886
13219,1881
13223,1867
13227,1875
13231,1897
13235,1885
13239,1863
13243,1878
13247,1901
13251,1890
13255,1870
13259,1870
13263,1883
13267,1893
13271,1875
13275,1872
13279,1898
13283,1910
13287,1887
13291,1879
13295,1889
13299,1904
13303,1895
13307,1891
13311,1907
13315,1920
13319,1905
13323,1899
13327,1904
13331,1916
13335,1908
13339,1888
13343,1898
13347,1925
13351,1946
13355,1947
13359,1974
13363,1994
13367,1994
13371,1968
13375,1943
13379,1958
13383,1962
13387,1932
13391,1911
13395,1925
13399,1938
13403,1933
13407,1915
13411,1924
13415,1936
13419,1931
13423,1907
13427,1923
13431,1938
13435,1938
13439,1920
13443,1921
13447,1941
13451,1909
13455,1803
13459,1717
13463,1802
13467,2174
13471,2779
13475,3643
13479,4095
13483,4095
13487,3580
13491,2815
13495,2288
13499,2047
13503,1963
13507,1943
13511,1941
13515,1937
13519,1904
13523,1868
13527,1853
13531,1868
13535,1857
13539,1840
13543,1839
13547,1853
13551,1851
13555,1845
13559,1850
13563,1874
13567,1878
13571,1868
13575,1866
13579,1882
13583,1902
13587,1890
13591,1877
13595,1891
13599,1907
13603,1905
13607,1893
13611,1902
13615,1926
13619,1919
13623,1904
13627,1907
13631,1933
13635,1932
13639,1919
13643,1931
13647,1952
13651,1958
13655,1936
13659,1938
13663,1965
13667,1972
13671,1965
13675,1966
13679,1984
13683,2000
13687,1999
13691,1991
13695,2015
13699,2032
13703,2033
13707,2022
13711,2034
13715,2055
13719,2056
13723,2045
13727,2070
13731,2096
13735,2096
13739,2091
13743,2078
13747,2095
13751,2075
13755,2023
13759,2000
13763,1987
13767,1971
13771,1931
13775,1901
13779,1906
13783,1904
13787,1878
13791,1866
13795,1872
13799,1885
13803,1878
13807,1859
13811,1873
13815,1895
13819,1880
13823,1863
13827,1874
13831,1891
13835,1892
13839,1871
13843,1872
13847,1887
13851,1889
13855,1879
13859,1878
13863,1904
13867,1904
13871,1889
13875,1885
13879,1904
13883,1915
13887,1903
13891,1882
13895,1907
13899,1919
13903,1910
13907,1894
13911,1904
13915,1925
13919,1919
13923,1904
13927,1906
13931,1927
13935,1920
13939,1903
13943,1904
13947,1921
13951,1935
13955,1917
13959,1910
13963,1936
13967,1938
13971,1917
13975,1904
13979,1920
13983,1933
13987,1934
13991,1936
13995,1968
13999,2004
14003,2005
14007,2001
14011,2000
14015,1989
14019,1971
14023,1950
14027,1950
14031,1955
14035,1946
14039,1922
14043,1921
14047,1943
14051,1954
14055,1929
14059,1934
14063,1940
14067,1911
14071,1949
14075,1935
14079,1957
14083,1970
14087,1966
14091,1929
14095,1872
14099,1791
14103,1754
14107,1959
14111,2464
14115,3248
14119,4095
14123,4095
14127,4095
14131,3285
14135,2576
14139,2132
14143,1978
14147,1973
14151,1979
14155,1951
14159,1918
14163,1915
14167,1899
14171,1865
14175,1847
14179,1867
14183,1871
14187,1861
14191,1848
14195,1867
14199,1890
14203,1879
14207,1867
14211,1879
14215,1900
14219,1892
14223,1872
14227,1879
14231,1905
14235,1903
14239,1891
14243,1890
14247,1911
14251,1919
14255,1904
14259,1907
14263,1934
14267,1941
14271,1929
14275,1920
14279,1939
14283,1954
14287,1938
14291,1936
14295,1953
14299,1974
14303,1971
14307,1962
14311,1967
14315,1985
14319,1993
14323,1982
14327,1995
14331,2022
14335,2023
14339,2010
14343,2019
14347,2053
14351,2065
14355,2063
14359,2064
14363,2089
14367,2112
14371,2108
14375,2107
14379,2122
14383,2129
14387,2105
14391,2067
14395,2054
14399,2025
14403,1987
14407,1946
14411,1927
14415,1936
14419,1908
14423,1879
14427,1871
14431,1872
14435,1875
14439,1859
14443,1857
14447,1875
14451,1881
14455,1862
14459,1861
14463,1878
14467,1892
14471,1873
14475,1872
14479,1889
14483,1904
14487,1888
14491,1872
14495,1886
14499,1904
14503,1892
14507,1873
14511,1883
14515,1904
14519,1903
14523,1887
14527,1895
14531,1909
14535,1901
14539,1889
14543,1891
14547,1908
14551,1918
14555,1902
14559,1893
14563,1908
14567,1925
14571,1904
14575,1902
14579,1919
14583,1930
14587,1922
14591,1905
14595,1916
14599,1936
14603,1925
14607,1910
14611,1921
14615,1938
14619,1930
14623,1901
14627,1901
14631,1927
14635,1938
14639,1945
14643,1968
14647,2011
14651,2026
14655,1993
14659,1961
14663,1967
14667,1971
14671,1951
14675,1929
14679,1937
14683,1941
14687,1933
14691,1919
14695,1934
14699,1953
14703,1946
14707,1930
14711,1939
14715,1958
14719,1955
14723,1938
14727,1938
14731,1961
14735,1947
14739,1866
14743,1773
14747,1770
14751,1979
14755,2503
14759,3287
14763,4095
14767,4095
14771,4059
14775,3140
14779,2478
14783,2122
14787,1985
14791,1964
14795,1973
14799,1967
14803,1937
14807,1895
14811,1886
14815,1891
14819,1877
14823,1845
14827,1846
14831,1865
14835,1870
14839,1857
14843,1856
14847,1874
14851,1887
14855,1872
14859,1873
14863,1897
14867,1908
14871,1895
14875,1886
14879,1904
14883,1915
14887,1907
14891,1899
14895,1913
14899,1936
14903,1935
14907,1920
14911,1931
14915,1942
14919,1946
14923,1930
14927,1936
14931,1955
14935,1965
14939,1949
14943,1954
14947,1979
14951,1991
14955,1977
14959,1981
14963,2003
14967,2025
14971,2018
14975,2001
14979,2027
14983,2062
14987,2039
14991,2076
14995,2067
14999,2065
15003,2112
15007,2109
15011,2123
15015,2147
15019,2150
15023,2131
15027,2128
15031,2143
15035,2103
15039,2093
15043,2017
15047,2000
15051,1984
15055,1936
15059,1903
15063,1900
15067,1891
15071,1872
15075,1862
15079,1865
15083,1872
15087,1865
15091,1855
15095,1858
15099,1879
15103,1878
15107,1857
15111,1868
15115,1891
15119,1881
15123,1858
15127,1859
15131,1893
15135,1894
15139,1877
15143,1870
15147,1881
15151,1886
15155,1875
15159,1872
15163,1888
15167,1895
15171,1891
15175,1872
15179,1895
15183,1904
15187,1890
15191,1869
15195,1879
15199,1895
15203,1893
15207,1883
15211,1885
15215,1899
15219,1904
15223,1885
15227,1889
15231,1906
15235,1904
15239,1891
15243,1888
15247,1904
15251,1905
15255,1889
15259,1878
15263,1901
15267,1923
15271,1936
15275,1959
15279,1994
15283,2003
15287,1984
15291,1947
15295,1946
15299,1961
15303,1945
15307,1918
15311,1911
15315,1925
15319,1927
15323,1917
15327,1915
15331,1936
15335,1930
15339,1913
15343,1910
15347,1930
15351,1935
15355,1924
15359,1926
15363,1941
15367,1927
15371,1843
15375,1744
15379,1799
15383,2113
15387,2702
15391,3531
15395,4095
15399,4095
15403,3519
15407,2743
15411,2224
15415,2020
15419,1969
15423,1957
15427,1950
15431,1950
15435,1923
15439,1875
15443,1865
15447,1877
15451,1879
15455,1856
15459,1845
15463,1856
15467,1872
15471,1870
15475,1856
15479,1872
15483,1891
15487,1889
15491,1871
15495,1883
15499,1907
15503,1904
15507,1891
15511,1897
15515,1909
15519,1913
15523,1904
15527,1906
15531,1933
15535,1935
15539,1923
15543,1919
15547,1931
15551,1947
15555,1936
15559,1933
15563,1956
15567,1971
15571,1964
15575,1959
15579,1978
15583,1999
15587,2002
15591,1994
15595,2000
15599,2019
15603,2021
15607,2011
15611,2031
15615,2064
15619,2078
15623,2076
15627,2084
15631,2109
15635,2126
15639,2128
15643,2131
15647,2160
15651,2165
15655,2145
15659,2117
15663,2109
15667,2083
15671,2035
15675,1989
15679,1967
15683,1949
15687,1914
15691,1874
15695,1867
15699,1867
15703,1856
15707,1840
15711,1838
15715,1858
15719,1851
15723,1835
15727,1843
15731,1860
15735,1866
15739,1840
15743,1837
15747,1854
15751,1870
15755,1858
15759,1851
15763,1869
15767,1873
15771,1865
15775,1844
15779,1858
15783,1871
15787,1869
15791,1849
15795,1851
15799,1868
15803,1861
15807,1849
15811,1859
15815,1878
15819,1882
15823,1857
15827,1860
15831,1872
15835,1873
15839,1859
15843,1853
15847,1873
15851,1886
15855,1872
15859,1858
15863,1872
15867,1872
15871,1861
15875,1845
15879,1867
15883,1903
15887,1921
15891,1926
15895,1947
15899,1968
15903,1954
15907,1913
15911,1914
15915,1936
15919,1923
15923,1887
15927,1868
15931,1891
15935,1898
15939,1883
15943,1883
15947,1910
15951,1907
15955,1904
15959,1886
15963,1901
15967,1911
15971,1904
15975,1881
15979,1904
15983,1901
15987,1817
15991,1728
15995,1776
15999,2111
16003,2695
16007,3475
16011,4095
16015,4095
16019,3232
16023,2521
16027,2119
16031,1963
16035,1950
16039,1942
16043,1898
16047,1933
16051,1904
16055,1872
16059,1840
16063,1840
16067,1842
16071,1858
16075,1835
16079,1850
16083,1863
16087,1859
16091,1846
16095,1858
16099,1872
16103,1877
16107,1854
16111,1873
16115,1891
16119,1893
16123,1877
16127,1882
16131,1911
16135,1918
16139,1895
16143,1890
16147,1916
16151,1935
16155,1926
16159,1922
16163,1936
16167,1955
16171,1949
16175,1936
16179,1949
16183,1973
16187,1968
16191,1957
16195,1968
16199,1994
16203,1994
16207,1981
16211,1985
16215,2013
16219,2032
16223,2022
16227,2026
16231,2064
16235,2073
16239,2075
16243,2081
16247,2108
16251,2125
16255,2123
16259,2125
16263,2149
16267,2160
16271,2138
16275,2105
16279,2086
16283,2067
16287,2013
16291,1962
16295,1935
16299,1918
16303,1894
16307,1849
16311,1845
16315,1855
16319,1862
16323,1831
16327,1818
16331,1842
16335,1853
16339,1839
16343,1827
16347,1847
16351,1856
16355,1841
16359,1834
16363,1851
16367,1867
16371,1857
16375,1840
16379,1851
16383,1870
16387,1870
16391,1847
16395,1855
16399,1873
16403,1879
16407,1862
16411,1853
16415,1872
16419,1872
16423,1857
16427,1859
16431,1879
16435,1884
16439,1872
16443,1859
16447,1873
16451,1884
16455,1875
16459,1865
16463,1872
16467,1881
16471,1877
16475,1872
16479,1886
16483,1910
16487,1924
16491,1936
16495,1961
16499,1967
16503,1952
16507,1920
16511,1921
16515,1935
16519,1923
16523,1889
16527,1873
16531,1895
16535,1911
16539,1899
16543,1893
16547,1904
16551,1904
16555,1895
16559,1888
16563,1907
16567,1924
16571,1918
16575,1903
16579,1906
16583,1878
16587,1808
16591,1746
16595,1853
16599,2240
16603,2818
16607,3547
16611,4016
16615,3536
16619,2864
16623,2307
16627,1999
16631,1930
16635,1938
16639,1936
16643,1925
16647,1919
16651,1915
16655,1893
16659,1866
16663,1872
16667,1888
16671,1872
16675,1856
16679,1865
16683,1883
16687,1879
16691,1864
16695,1874
16699,1891
16703,1900
16707,1888
16711,1895
16715,1919
16719,1934
16723,1919
16727,1909
16731,1933
16735,1933
16739,1925
16743,1917
16747,1936
16751,1953
16755,1940
16759,1935
16763,1951
16767,1971
16771,1970
16775,1963
16779,1979
16783,1999
16787,2000
16791,1986
16795,1996
16799,2019
16803,2023
16807,2006
16811,2009
16815,2035
16819,2047
16823,2045
16827,2045
16831,2078
16835,2096
16839,2087
16843,2090
16847,2123
16851,2150
16855,2151
16859,2150
16863,2161
16867,2169
16871,2145
16875,2105
16879,2083
16883,2064
16887,2019
16891,1963
16895,1939
16899,1931
16903,1910
16907,1875
16911,1859
16915,1870
16919,1874
16923,1853
16927,1839
16931,1850
16935,1860
16939,1853
16943,1839
16947,1861
16951,1856
16955,1869
16959,1852
16963,1859
16967,1883
16971,1871
16975,1862
16979,1863
16983,1904
16987,1881
16991,1872
16995,1874
16999,1879
17003,1915
17007,1871
17011,1862
17015,1888
17019,1893
17023,1875
17027,1867
17031,1885
17035,1886
17039,1878
17043,1858
17047,1890
17051,1897
17055,1877
17059,1867
17063,1882
17067,1907
17071,1904
17075,1910
17079,1941
17083,1975
17087,1978
17091,1947
17095,1933
17099,1935
17103,1936
17107,1904
17111,1887
17115,1902
17119,1904
17123,1887
17127,1886
17131,1904
17135,1906
17139,1899
17143,1889
17147,1897
17151,1916
17155,1899
17159,1890
17163,1907
17167,1917
17171,1878
17175,1785
17179,1721
17183,1783
17187,2096
17191,2631
17195,3362
17199,4095
17203,3872
17207,3122
17211,2499
17215,2107
17219,1952
17223,1920
17227,1921
17231,1936
17235,1932
17239,1893
17243,1861
17247,1862
17251,1869
17255,1856
17259,1835
17263,1851
17267,1867
17271,1861
17275,1843
17279,1856
17283,1878
17287,1879
17291,1865
17295,1873
17299,1889
17303,1899
17307,1883
17311,1887
17315,1911
17319,1917
17323,1901
17327,1901
17331,1919
17335,1929
17339,1919
17343,1906
17347,1926
17351,1940
17355,1936
17359,1931
17363,1945
17367,1968
17371,1967
17375,1949
17379,1959
17383,1984
17387,1987
17391,1973
17395,1984
17399,2008
17403,2014
17407,2001
17411,2010
17415,2033
17419,2055
17423,2042
17427,2041
17431,2064
17435,2091
17439,2093
17443,2096
17447,2118
17451,2138
17455,2134
17459,2109
17463,2097
17467,2091
17471,2046
17475,1989
17479,1963
17483,1959
17487,1926
17491,1890
17495,1871
17499,1872
17503,1866
17507,1840
17511,1838
17515,1854
17519,1855
17523,1840
17527,1829
17531,1851
17535,1868
17539,1867
17543,1851
17547,1857
17551,1873
17555,1865
17559,1846
17563,1859
17567,1887
17571,1876
17575,1866
17579,1867
17583,1879
17587,1875
17591,1855
17595,1861
17599,1875
17603,1882
17607,1862
17611,1871
17615,1887
17619,1898
17623,1881
17627,1875
17631,1891
17635,1898
17639,1878
17643,1857
17647,1872
17651,1902
17655,1898
17659,1891
17663,1929
17667,1968
17671,1969
17675,1943
17679,1922
17683,1936
17687,1923
17691,1910
17695,1898
17699,1904
17703,1901
17707,1887
17711,1887
17715,1905
17719,1910
17723,1893
17727,1881
17731,1908
17735,1914
17739,1909
17743,1895
17747,1914
17751,1920
17755,1895
17759,1803
17763,1723
17767,1735
17771,1975
17775,2511
17779,3284
17783,4095
17787,4095
17791,3823
17795,2990
17799,2373
17803,2055
17807,1936
17811,1920
17815,1936
17819,1932
17823,1889
17827,1857
17831,1851
17835,1845
17839,1836
17843,1817
17847,1835
17851,1841
17855,1838
17859,1824
17863,1827
17867,1862
17871,1851
17875,1843
17879,1840
17883,1867
17887,1873
17891,1858
17895,1860
17899,1885
17903,1883
17907,1901
17911,1869
17915,1860
17919,1926
17923,1887
17927,1883
17931,1904
17935,1922
17939,1906
17943,1903
17947,1916
17951,1931
17955,1923
17959,1915
17963,1929
17967,1957
17971,1965
17975,1950
17979,1965
17983,1985
17987,1989
17991,1987
17995,1991
17999,2016
18003,2029
18007,2019
18011,2022
18015,2042
18019,2071
18023,2055
18027,2058
18031,2080
18035,2098
18039,2096
18043,2081
18047,2078
18051,2079
18055,2041
18059,1991
18063,1969
18067,1965
18071,1942
18075,1902
18079,1888
18083,1899
18087,1883
18091,1856
18095,1849
18099,1866
18103,1874
18107,1858
18111,1850
18115,1869
18119,1875
18123,1860
18127,1852
18131,1869
18135,1886
18139,1883
18143,1862
18147,1869
18151,1885
18155,1877
18159,1869
18163,1872
18167,1891
18171,1891
18175,1867
18179,1866
18183,1894
18187,1898
18191,1883
18195,1878
18199,1901
18203,1905
18207,1898
18211,1883
18215,1900
18219,1905
18223,1901
18227,1881
18231,1897
18235,1913
18239,1911
18243,1906
18247,1936
18251,1983
18255,1989
18259,1969
18263,1961
18267,1958
18271,1955
18275,1930
18279,1919
18283,1925
18287,1918
18291,1900
18295,1893
18299,1915
18303,1927
18307,1909
18311,1893
18315,1915
18319,1929
18323,1910
18327,1904
18331,1919
18335,1933
18339,1906
18343,1830
18347,1734
18351,1701
18355,1877
18359,2387
18363,3174
18367,4095
18371,4095
18375,4095
18379,3405
18383,2637
18387,2155
18391,1959
18395,1929
18399,1947
18403,1940
18407,1904
18411,1867
18415,1858
18419,1856
18423,1840
18427,1824
18431,1836
18435,1843
18439,1839
18443,1819
18447,1840
18451,1858
18455,1855
18459,1840
18463,1854
18467,1872
18471,1877
18475,1869
18479,1859
18483,1883
18487,1888
18491,1872
18495,1873
18499,1893
18503,1905
18507,1892
18511,1881
18515,1905
18519,1920
18523,1911
18527,1898
18531,1918
18535,1937
18539,1940
18543,1929
18547,1937
18551,1968
18555,1966
18559,1958
18563,1968
18567,1995
18571,2003
18575,1999
18579,2003
18583,2029
18587,2038
18591,2027
18595,2032
18599,2064
18603,2079
18607,2074
18611,2077
18615,2109
18619,2131
18623,2123
18627,2106
18631,2109
18635,2096
18639,2062
18643,2001
18647,1979
18651,1968
18655,1941
18659,1903
18663,1883
18667,1889
18671,1877
18675,1857
18679,1850
18683,1870
18687,1867
18691,1851
18695,1842
18699,1869
18703,1877
18707,1860
18711,1853
18715,1866
18719,1878
18723,1872
18727,1856
18731,1873
18735,1887
18739,1872
18743,1863
18747,1879
18751,1900
18755,1889
18759,1867
18763,1874
18767,1898
18771,1898
18775,1879
18779,1874
18783,1899
18787,1903
18791,1895
18795,1919
18799,1909
18803,1915
18807,1904
18811,1907
18815,1893
18819,1909
18823,1897
18827,1883
18831,1911
18835,1969
18839,1985
18843,1969
18847,1973
18851,1968
18855,1952
18859,1936
18863,1925
18867,1927
18871,1909
18875,1894
18879,1892
18883,1904
18887,1911
18891,1902
18895,1904
18899,1909
18903,1920
18907,1904
18911,1900
18915,1907
18919,1934
18923,1911
18927,1854
18931,1770
18935,1691
18939,1745
18943,2120
18947,2819
18951,3905
18955,4095
18959,4095
18963,3915
18967,2992
18971,2326
18975,1994
18979,1915
18983,1943
18987,1940
18991,1906
18995,1869
18999,1863
19003,1856
19007,1839
19011,1815
19015,1821
19019,1838
19023,1829
19027,1813
19031,1830
19035,1847
19039,1850
19043,1831
19047,1848
19051,1870
19055,1865
19059,1846
19063,1857
19067,1883
19071,1887
19075,1868
19079,1872
19083,1894
19087,1906
19091,1887
19095,1885
19099,1906
19103,1926
19107,1920
19111,1907
19115,1931
19119,1945
19123,1939
19127,1931
19131,1951
19135,1968
19139,1968
19143,1956
19147,1969
19151,1989
19155,2000
19159,1994
19163,2002
19167,2034
19171,2046
19175,2034
19179,2045
19183,2078
19187,2096
19191,2087
19195,2091
19199,2120
19203,2142
19207,2134
19211,2126
19215,2128
19219,2113
19223,2071
19227,2025
19231,1999
19235,1978
19239,1936
19243,1889
19247,1878
19251,1877
19255,1861
19259,1835
19263,1836
19267,1853
19271,1854
19275,1838
19279,1828
19283,1846
19287,1851
19291,1839
19295,1830
19299,1846
19303,1857
19307,1856
19311,1846
19315,1856
19319,1872
19323,1863
19327,1844
19331,1861
19335,1878
19339,1873
19343,1851
19347,1854
19351,1872
19355,1871
19359,1856
19363,1860
19367,1881
19371,1879
19375,1859
19379,1865
19383,1880
19387,1903
19391,1875
19395,1857
19399,1872
19403,1886
19407,1885
19411,1877
19415,1914
19419,1962
19423,1959
19427,1947
19431,1946
19435,1939
19439,1933
19443,1904
19447,1902
19451,1906
19455,1899
19459,1876
19463,1874
19467,1895
19471,1898
19475,1883
19479,1885
19483,1905
19487,1911
19491,1897
19495,1889
19499,1906
19503,1920
19507,1889
19511,1808
19515,1715
19519,1685
19523,1861
19527,2413
19531,3267
19535,4095
19539,4095
19543,4095
19547,3568
19551,2699
19555,2160
19559,1935
19563,1904
19567,1933
19571,1929
19575,1889
19579,1856
19583,1850
19587,1840
19591,1815
19595,1808
19599,1821
19603,1835
19607,1824
19611,1808
19615,1823
19619,1840
19623,1830
19627,1823
19631,1840
19635,1857
19639,1858
19643,1843
19647,1847
19651,1873
19655,1872
19659,1855
19663,1856
19667,1889
19671,1894
19675,1883
19679,1882
19683,1899
19687,1903
19691,1900
19695,1893
19699,1913
19703,1937
19707,1935
19711,1931
19715,1946
19719,1977
19723,1971
19727,1965
19731,1979
19735,2003
19739,2033
19743,2003
19747,2014
19751,2036
19755,2053
19759,1997
19763,2047
19767,2081
19771,2097
19775,2099
19779,2111
19783,2135
19787,2157
19791,2142
19795,2129
19799,2122
19803,2096
19807,2047
19811,1995
19815,1970
19819,1951
19823,1911
19827,1872
19831,1860
19835,1860
19839,1843
19843,1821
19847,1824
19851,1840
19855,1839
19859,1822
19863,1820
19867,1845
19871,1850
19875,1836
19879,1823
19883,1840
19887,1849
19891,1847
19895,1830
19899,1853
19903,1872
19907,1861
19911,1846
19915,1859
19919,1869
19923,1856
19927,1840
19931,1853
19935,1872
19939,1872
19943,1854
19947,1857
19951,1872
19955,1872
19959,1856
19963,1861
19967,1873
19971,1872
19975,1856
19979,1856
19983,1887
19987,1900
19991,1904
19995,1920
