Timestamp,ECG Data
4,1968
7,2001
11,2029
15,2025
19,2028
23,2055
27,2067
31,2061
35,2037
39,2030
43,2022
47,2011
51,1995
55,1986
59,1985
63,1995
67,1987
71,1994
75,1997
79,2001
83,1994
87,1989
91,1990
95,1987
99,1987
103,1999
107,2009
111,2017
115,1969
119,1870
123,1791
127,1842
131,2195
135,2864
139,3941
143,4095
147,4095
151,4095
155,3292
159,2530
163,2121
167,2000
171,1999
175,2025
179,2000
183,1973
187,1954
191,1942
195,1932
199,1917
203,1925
207,1931
211,1927
215,1918
219,1926
223,1940
227,1949
231,1946
235,1947
239,1954
243,1968
247,1955
251,1957
255,1975
259,1985
263,1973
267,1977
271,1996
275,2016
279,2017
283,2006
287,2013
291,2035
295,2043
299,2033
303,2039
307,2065
311,2074
315,2072
319,2085
323,2112
327,2122
331,2123
335,2134
339,2160
343,2177
347,2183
351,2198
355,2224
359,2235
363,2234
367,2227
371,2241
375,2262
379,2267
383,2273
387,2288
391,2298
395,2287
399,2256
403,2235
407,2212
411,2177
415,2127
419,2088
423,2063
427,2029
431,1986
435,1966
439,1966
443,1963
447,1966
451,1949
455,1947
459,1962
463,1939
467,1932
471,1950
475,1968
479,1969
483,1959
487,1971
491,1989
495,1980
499,1965
503,1968
507,1984
511,1985
515,1977
519,1983
523,2001
527,2006
531,1997
535,1984
539,1991
543,2007
547,2001
551,2000
555,2007
559,2017
563,2005
567,2006
571,2000
575,2007
579,2009
583,2019
587,2023
591,2022
595,2002
599,1989
603,2000
607,2019
611,2016
615,1991
619,1989
623,2007
627,2027
631,2023
635,2011
639,2022
643,2029
647,2024
651,2012
655,2033
659,2038
663,2030
667,2019
671,2020
675,2023
679,2033
683,2034
687,2037
691,2071
695,2087
699,2099
703,2098
707,2096
711,2081
715,2059
719,2047
723,2057
727,2062
731,2055
735,2027
739,2032
743,2038
747,2037
751,2037
755,2053
759,2063
763,2061
767,2043
771,2032
775,2054
779,2053
783,2039
787,2040
791,2045
795,1981
799,1893
803,1887
807,2065
811,2446
815,2986
819,3660
823,3821
827,3312
831,2746
835,2295
839,2095
843,2054
847,2064
851,2073
855,2075
859,2064
863,2035
867,2016
871,2030
875,2033
879,2001
883,2005
887,2025
891,2039
895,2031
899,2000
903,2035
907,2074
911,2046
915,2026
919,2060
923,2076
927,2093
931,2074
935,2071
939,2085
943,2096
947,2080
951,2083
955,2109
959,2128
963,2130
967,2114
971,2132
975,2145
979,2140
983,2145
987,2157
991,2175
995,2176
999,2173
1003,2190
1007,2210
1011,2224
1015,2224
1019,2251
1023,2270
1027,2276
1031,2258
1035,2279
1039,2295
1043,2294
1047,2301
1051,2302
1055,2314
1059,2322
1063,2313
1067,2295
1071,2286
1075,2285
1079,2256
1083,2190
1087,2151
1091,2145
1095,2127
1099,2105
1103,2071
1107,2042
1111,2018
1115,2017
1119,2012
1123,2015
1127,2013
1131,2000
1135,2003
1139,2027
1143,2021
1147,2023
1151,2006
1155,2009
1159,2019
1163,2022
1167,2010
1171,2018
1175,2034
1179,2045
1183,2026
1187,2032
1191,2064
1195,2064
1199,2023
1203,2032
1207,2073
1211,2077
1215,2062
1219,2057
1223,2064
1227,2075
1231,2065
1235,2069
1239,2102
1243,2113
1247,2082
1251,2083
1255,2096
1259,2103
1263,2096
1267,2094
1271,2094
1275,2108
1279,2110
1283,2096
1287,2087
1291,2096
1295,2102
1299,2109
1303,2123
1307,2128
1311,2156
1315,2163
1319,2171
1323,2167
1327,2153
1331,2133
1335,2128
1339,2125
1343,2128
1347,2108
1351,2086
1355,2096
1359,2104
1363,2112
1367,2096
1371,2099
1375,2107
1379,2103
1383,2098
1387,2096
1391,2098
1395,2095
1399,2095
1403,2080
1407,2093
1411,2069
1415,2027
1419,1994
1423,2042
1427,2251
1431,2559
1435,2963
1439,3125
1443,2893
1447,2521
1451,2223
1455,2079
1459,2062
1463,2074
1467,2099
1471,2111
1475,2107
1479,2112
1483,2091
1487,2067
1491,2080
1495,2077
1499,2071
1503,2067
1507,2086
1511,2086
1515,2082
1519,2085
1523,2097
1527,2099
1531,2105
1535,2103
1539,2112
1543,2115
1547,2119
1551,2128
1555,2133
1559,2159
1563,2162
1567,2157
1571,2119
1575,2109
1579,2113
1583,2109
1587,2133
1591,2154
1595,2151
1599,2151
1603,2162
1607,2176
1611,2186
1615,2175
1619,2176
1623,2192
1627,2214
1631,2206
1635,2213
1639,2218
1643,2233
1647,2225
1651,2223
1655,2227
1659,2224
1663,2215
1667,2208
1671,2221
1675,2215
1679,2202
1683,2182
1687,2169
1691,2149
1695,2119
1699,2096
1703,2061
1707,2009
1711,1985
1715,1974
1719,1968
1723,1944
1727,1933
1731,1905
1735,1902
1739,1920
1743,1917
1747,1904
1751,1906
1755,1920
1759,1917
1763,1902
1767,1906
1771,1920
1775,1927
1779,1909
1783,1946
1787,1908
1791,1873
1795,1901
1799,1893
1803,1904
1807,1910
1811,1901
1815,1888
1819,1923
1823,1890
1827,1888
1831,1886
1835,1887
1839,1890
1843,1905
1847,1901
1851,1881
1855,1877
1859,1875
1863,1874
1867,1872
1871,1883
1875,1887
1879,1872
1883,1856
1887,1859
1891,1883
1895,1892
1899,1889
1903,1914
1907,1926
1911,1944
1915,1922
1919,1904
1923,1901
1927,1900
1931,1887
1935,1872
1939,1871
1943,1868
1947,1862
1951,1866
1955,1878
1959,1872
1963,1859
1967,1853
1971,1867
1975,1870
1979,1862
1983,1846
1987,1850
1991,1862
1995,1862
1999,1846
2003,1813
2007,1785
2011,1769
2015,1808
2019,1984
2023,2267
2027,2608
2031,2709
2035,2502
2039,2208
2043,1936
2047,1769
2051,1733
2055,1758
2059,1788
2063,1809
2067,1802
2071,1797
2075,1796
2079,1776
2083,1763
2087,1773
2091,1779
2095,1781
2099,1771
2103,1763
2107,1776
2111,1782
2115,1775
2119,1776
2123,1786
2127,1798
2131,1788
2135,1785
2139,1794
2143,1805
2147,1799
2151,1794
2155,1806
2159,1811
2163,1812
2167,1810
2171,1830
2175,1841
2179,1849
2183,1843
2187,1846
2191,1861
2195,1867
2199,1855
2203,1865
2207,1887
2211,1897
2215,1891
2219,1885
2223,1905
2227,1914
2231,1916
2235,1918
2239,1935
2243,1937
2247,1932
2251,1919
2255,1935
2259,1953
2263,1950
2267,1941
2271,1941
2275,1936
2279,1911
2283,1874
2287,1847
2291,1821
2295,1782
2299,1743
2303,1712
2307,1699
2311,1672
2315,1648
2319,1647
2323,1655
2327,1650
2331,1638
2335,1634
2339,1648
2343,1653
2347,1647
2351,1636
2355,1645
2359,1658
2363,1650
2367,1658
2371,1667
2375,1677
2379,1673
2383,1668
2387,1678
2391,1687
2395,1680
2399,1671
2403,1680
2407,1689
2411,1692
2415,1680
2419,1678
2423,1684
2427,1691
2431,1680
2435,1687
2439,1699
2443,1709
2447,1695
2451,1683
2455,1689
2459,1697
2463,1696
2467,1695
2471,1684
2475,1691
2479,1686
2483,1683
2487,1693
2491,1715
2495,1722
2499,1711
2503,1712
2507,1713
2511,1701
2515,1703
2519,1717
2523,1745
2527,1744
2531,1723
2535,1712
2539,1714
2543,1712
2547,1702
2551,1706
2555,1712
2559,1714
2563,1709
2567,1695
2571,1703
2575,1721
2579,1717
2583,1713
2587,1715
2591,1703
2595,1636
2599,1535
2603,1554
2607,1803
2611,2270
2615,2842
2619,3466
2623,3571
2627,3136
2631,2601
2635,2119
2639,1850
2643,1770
2647,1745
2651,1730
2655,1725
2659,1712
2663,1682
2667,1661
2671,1664
2675,1678
2679,1666
2683,1658
2687,1670
2691,1671
2695,1673
2699,1649
2703,1674
2707,1680
2711,1690
2715,1680
2719,1690
2723,1707
2727,1718
2731,1712
2735,1714
2739,1729
2743,1719
2747,1728
2751,1728
2755,1746
2759,1753
2763,1753
2767,1744
2771,1760
2775,1771
2779,1774
2783,1771
2787,1783
2791,1805
2795,1806
2799,1807
2803,1814
2807,1837
2811,1840
2815,1847
2819,1853
2823,1872
2827,1889
2831,1888
2835,1893
2839,1911
2843,1927
2847,1927
2851,1923
2855,1938
2859,1950
2863,1950
2867,1936
2871,1937
2875,1921
2879,1892
2883,1856
2887,1830
2891,1811
2895,1792
2899,1753
2903,1747
2907,1745
2911,1738
2915,1721
2919,1717
2923,1731
2927,1737
2931,1731
2935,1727
2939,1738
2943,1744
2947,1734
2951,1729
2955,1743
2959,1754
2963,1750
2967,1744
2971,1760
2975,1764
2979,1759
2983,1745
2987,1754
2991,1770
2995,1765
2999,1752
3003,1762
3007,1776
3011,1777
3015,1775
3019,1776
3023,1781
3027,1790
3031,1778
3035,1776
3039,1790
3043,1802
3047,1797
3051,1792
3055,1790
3059,1794
3063,1792
3067,1796
3071,1810
3075,1843
3079,1864
3083,1874
3087,1883
3091,1872
3095,1856
3099,1837
3103,1840
3107,1845
3111,1825
3115,1808
3119,1803
3123,1819
3127,1823
3131,1814
3135,1819
3139,1834
3143,1837
3147,1829
3151,1823
3155,1840
3159,1843
3163,1842
3167,1843
3171,1841
3175,1809
3179,1710
3183,1611
3187,1695
3191,2096
3195,2720
3199,3551
3203,4095
3207,4095
3211,3590
3215,2805
3219,2239
3223,1968
3227,1891
3231,1869
3235,1855
3239,1851
3243,1836
3247,1797
3251,1776
3255,1776
3259,1776
3263,1775
3267,1759
3271,1764
3275,1775
3279,1776
3283,1776
3287,1788
3291,1804
3295,1798
3299,1792
3303,1795
3307,1808
3311,1811
3315,1811
3319,1821
3323,1824
3327,1839
3331,1834
3335,1840
3339,1851
3343,1866
3347,1863
3351,1861
3355,1872
3359,1891
3363,1889
3367,1893
3371,1906
3375,1925
3379,1935
3383,1931
3387,1947
3391,1968
3395,1983
3399,1983
3403,1999
3407,2023
3411,2035
3415,2038
3419,2054
3423,2079
3427,2091
3431,2077
3435,2086
3439,2108
3443,2122
3447,2106
3451,2090
3455,2080
3459,2061
3463,2019
3467,1980
3471,1952
3475,1922
3479,1889
3483,1856
3487,1840
3491,1835
3495,1827
3499,1807
3503,1811
3507,1824
3511,1821
3515,1821
3519,1819
3523,1826
3527,1829
3531,1830
3535,1830
3539,1840
3543,1841
3547,1831
3551,1830
3555,1843
3559,1852
3563,1847
3567,1840
3571,1852
3575,1862
3579,1856
3583,1846
3587,1850
3591,1857
3595,1858
3599,1856
3603,1846
3607,1871
3611,1873
3615,1846
3619,1856
3623,1869
3627,1875
3631,1839
3635,1870
3639,1898
3643,1875
3647,1871
3651,1900
3655,1924
3659,1925
3663,1932
3667,1958
3671,1978
3675,1987
3679,1966
3683,1935
3687,1935
3691,1938
3695,1910
3699,1894
3703,1872
3707,1898
3711,1898
3715,1887
3719,1892
3723,1913
3727,1914
3731,1905
3735,1904
3739,1914
3743,1917
3747,1909
3751,1904
3755,1919
3759,1923
3763,1854
3767,1731
3771,1663
3775,1833
3779,2357
3783,3151
3787,4095
3791,4095
3795,4095
3799,4095
3803,3170
3807,2416
3811,2017
3815,1905
3819,1903
3823,1915
3827,1897
3831,1862
3835,1837
3839,1830
3843,1815
3847,1807
3851,1802
3855,1808
3859,1821
3863,1809
3867,1807
3871,1815
3875,1823
3879,1835
3883,1829
3887,1834
3891,1844
3895,1843
3899,1841
3903,1853
3907,1868
3911,1869
3915,1862
3919,1870
3923,1883
3927,1893
3931,1890
3935,1897
3939,1907
3943,1913
3947,1919
3951,1921
3955,1935
3959,1953
3963,1957
3967,1959
3971,1977
3975,2000
3979,2003
3983,2014
3987,2033
3991,2064
3995,2074
3999,2073
4003,2086
4007,2103
4011,2113
4015,2115
4019,2128
4023,2153
4027,2160
4031,2160
4035,2153
4039,2151
4043,2131
4047,2100
4051,2065
4055,2027
4059,1993
4063,1947
4067,1905
4071,1891
4075,1875
4079,1859
4083,1846
4087,1841
4091,1850
4095,1846
4099,1841
4103,1849
4107,1856
4111,1859
4115,1845
4119,1846
4123,1861
4127,1866
4131,1862
4135,1857
4139,1869
4143,1869
4147,1865
4151,1868
4155,1873
4159,1877
4163,1873
4167,1872
4171,1876
4175,1883
4179,1883
4183,1872
4187,1872
4191,1882
4195,1882
4199,1872
4203,1875
4207,1888
4211,1889
4215,1878
4219,1885
4223,1889
4227,1895
4231,1879
4235,1882
4239,1891
4243,1898
4247,1889
4251,1885
4255,1894
4259,1891
4263,1894
4267,1894
4271,1911
4275,1938
4279,1968
4283,1973
4287,1984
4291,1973
4295,1954
4299,1933
4303,1932
4307,1920
4311,1906
4315,1886
4319,1888
4323,1897
4327,1904
4331,1897
4335,1889
4339,1902
4343,1905
4347,1893
4351,1889
4355,1902
4359,1904
4363,1904
4367,1903
4371,1883
4375,1798
4379,1676
4383,1649
4387,1933
4391,2589
4395,3515
4399,4095
4403,4095
4407,4095
4411,3934
4415,2892
4419,2235
4423,1953
4427,1901
4431,1886
4435,1882
4439,1872
4443,1845
4447,1813
4451,1791
4455,1785
4459,1790
4463,1782
4467,1779
4471,1791
4475,1800
4479,1802
4483,1796
4487,1807
4491,1813
4495,1817
4499,1813
4503,1814
4507,1829
4511,1795
4515,1833
4519,1838
4523,1857
4527,1819
4531,1856
4535,1859
4539,1877
4543,1872
4547,1882
4551,1892
4555,1903
4559,1904
4563,1918
4567,1906
4571,1919
4575,1934
4579,1946
4583,1949
4587,1968
4591,1993
4595,2005
4599,2005
4603,2021
4607,2052
4611,2063
4615,2067
4619,2079
4623,2093
4627,2097
4631,2096
4635,2109
4639,2128
4643,2134
4647,2115
4651,2114
4655,2103
4659,2079
4663,2033
4667,1995
4671,1966
4675,1936
4679,1904
4683,1868
4687,1852
4691,1845
4695,1840
4699,1824
4703,1820
4707,1837
4711,1840
4715,1834
4719,1835
4723,1840
4727,1846
4731,1847
4735,1846
4739,1855
4743,1855
4747,1850
4751,1849
4755,1863
4759,1872
4763,1867
4767,1854
4771,1870
4775,1874
4779,1872
4783,1858
4787,1873
4791,1876
4795,1874
4799,1869
4803,1872
4807,1882
4811,1874
4815,1872
4819,1875
4823,1885
4827,1881
4831,1872
4835,1872
4839,1885
4843,1889
4847,1877
4851,1873
4855,1879
4859,1877
4863,1872
4867,1874
4871,1897
4875,1923
4879,1950
4883,1967
4887,1984
4891,1990
4895,1967
4899,1942
4903,1942
4907,1936
4911,1914
4915,1892
4919,1891
4923,1894
4927,1899
4931,1895
4935,1901
4939,1913
4943,1911
4947,1907
4951,1905
4955,1918
4959,1922
4963,1919
4967,1915
4971,1887
4975,1796
4979,1680
4983,1682
4987,2017
4991,2705
4995,3760
4999,4095
5003,4095
5007,4095
5011,3917
5015,2842
5019,2197
5023,1935
5027,1888
5031,1893
5035,1885
5039,1867
5043,1840
5047,1808
5051,1786
5055,1789
5059,1794
5063,1787
5067,1778
5071,1793
5075,1799
5079,1795
5083,1791
5087,1806
5091,1815
5095,1818
5099,1810
5103,1819
5107,1837
5111,1840
5115,1840
5119,1834
5123,1851
5127,1850
5131,1852
5135,1851
5139,1870
5143,1875
5147,1873
5151,1880
5155,1895
5159,1904
5163,1904
5167,1907
5171,1925
5175,1943
5179,1953
5183,1951
5187,1968
5191,1986
5195,2003
5199,2007
5203,2026
5207,2053
5211,2062
5215,2055
5219,2064
5223,2083
5227,2099
5231,2102
5235,2110
5239,2122
5243,2128
5247,2115
5251,2096
5255,2079
5259,2061
5263,2010
5267,1974
5271,1945
5275,1923
5279,1883
5283,1856
5287,1849
5291,1837
5295,1824
5299,1809
5303,1819
5307,1827
5311,1827
5315,1817
5319,1812
5323,1825
5327,1829
5331,1827
5335,1825
5339,1842
5343,1854
5347,1842
5351,1840
5355,1847
5359,1860
5363,1857
5367,1854
5371,1863
5375,1872
5379,1865
5383,1863
5387,1870
5391,1874
5395,1876
5399,1865
5403,1867
5407,1876
5411,1882
5415,1872
5419,1873
5423,1878
5427,1878
5431,1872
5435,1873
5439,1885
5443,1891
5447,1888
5451,1879
5455,1881
5459,1885
5463,1882
5467,1886
5471,1905
5475,1941
5479,1967
5483,1969
5487,1975
5491,1974
5495,1953
5499,1936
5503,1934
5507,1929
5511,1904
5515,1886
5519,1889
5523,1901
5527,1904
5531,1894
5535,1898
5539,1911
5543,1915
5547,1905
5551,1903
5555,1909
5559,1920
5563,1919
5567,1894
5571,1827
5575,1712
5579,1648
5583,1854
5587,2449
5591,3359
5595,4095
5599,4095
5603,4095
5607,4095
5611,3159
5615,2368
5619,1988
5623,1903
5627,1903
5631,1891
5635,1872
5639,1854
5643,1835
5647,1807
5651,1790
5655,1792
5659,1795
5663,1791
5667,1781
5671,1799
5675,1809
5679,1806
5683,1803
5687,1808
5691,1825
5695,1833
5699,1819
5703,1835
5707,1840
5711,1840
5715,1838
5719,1842
5723,1862
5727,1863
5731,1857
5735,1861
5739,1880
5743,1889
5747,1885
5751,1890
5755,1910
5759,1925
5763,1927
5767,1923
5771,1942
5775,1960
5779,1969
5783,1969
5787,1987
5791,2007
5795,2017
5799,2027
5803,2041
5807,2065
5811,2074
5815,2077
5819,2093
5823,2111
5827,2121
5831,2117
5835,2123
5839,2135
5843,2139
5847,2117
5851,2099
5855,2073
5859,2038
5863,2000
5867,1963
5871,1936
5875,1911
5879,1878
5883,1853
5887,1846
5891,1845
5895,1833
5899,1827
5903,1830
5907,1839
5911,1834
5915,1824
5919,1830
5923,1846
5927,1847
5931,1843
5935,1845
5939,1859
5943,1869
5947,1863
5951,1863
5955,1873
5959,1875
5963,1872
5967,1871
5971,1875
5975,1887
5979,1883
5983,1878
5987,1882
5991,1886
5995,1884
5999,1874
6003,1877
6007,1888
6011,1891
6015,1878
6019,1885
6023,1895
6027,1891
6031,1887
6035,1885
6039,1897
6043,1902
6047,1890
6051,1889
6055,1902
6059,1904
6063,1903
6067,1901
6071,1906
6075,1907
6079,1905
6083,1901
6087,1907
6091,1913
6095,1906
6099,1892
6103,1895
6107,1904
6111,1904
6115,1895
6119,1904
6123,1915
6127,1914
6131,1899
6135,1902
6139,1920
6143,1942
6147,1970
6151,1999
6155,2017
6159,2016
6163,1996
6167,1980
6171,1976
6175,1969
6179,1951
6183,1924
6187,1923
6191,1931
6195,1922
6199,1917
6203,1927
6207,1934
6211,1936
6215,1929
6219,1934
6223,1939
6227,1936
6231,1936
6235,1935
6239,1915
6243,1827
6247,1697
6251,1695
6255,2030
6259,2736
6263,3837
6267,4095
6271,4095
6275,4095
6279,4095
6283,3011
6287,2304
6291,1978
6295,1904
6299,1904
6303,1906
6307,1899
6311,1862
6315,1831
6319,1814
6323,1809
6327,1808
6331,1801
6335,1802
6339,1809
6343,1813
6347,1808
6351,1808
6355,1826
6359,1834
6363,1831
6367,1827
6371,1840
6375,1853
6379,1846
6383,1843
6387,1850
6391,1861
6395,1867
6399,1860
6403,1869
6407,1879
6411,1879
6415,1877
6419,1887
6423,1898
6427,1902
6431,1904
6435,1914
6439,1931
6443,1941
6447,1943
6451,1953
6455,1969
6459,1986
6463,1989
6467,2000
6471,2014
6475,2032
6479,2033
6483,2047
6487,2070
6491,2087
6495,2095
6499,2096
6503,2113
6507,2127
6511,2128
6515,2125
6519,2125
6523,2128
6527,2107
6531,2064
6535,2032
6539,2000
6543,1959
6547,1911
6551,1878
6555,1862
6559,1851
6563,1839
6567,1829
6571,1833
6575,1840
6579,1834
6583,1827
6587,1837
6591,1841
6595,1840
6599,1837
6603,1839
6607,1853
6611,1850
6615,1840
6619,1843
6623,1856
6627,1859
6631,1847
6635,1855
6639,1862
6643,1861
6647,1856
6651,1856
6655,1872
6659,1875
6663,1871
6667,1862
6671,1872
6675,1875
6679,1867
6683,1863
6687,1870
6691,1872
6695,1872
6699,1870
6703,1873
6707,1883
6711,1882
6715,1871
6719,1877
6723,1893
6727,1890
6731,1882
6735,1885
6739,1899
6743,1898
6747,1889
6751,1889
6755,1899
6759,1899
6763,1893
6767,1897
6771,1901
6775,1904
6779,1895
6783,1890
6787,1902
6791,1910
6795,1904
6799,1890
6803,1901
6807,1910
6811,1909
6815,1908
6819,1917
6823,1925
6827,1924
6831,1909
6835,1918
6839,1925
6843,1926
6847,1921
6851,1920
6855,1922
6859,1927
6863,1919
6867,1921
6871,1930
6875,1933
6879,1918
6883,1915
6887,1938
6891,1967
6895,1986
6899,1997
6903,2013
6907,2019
6911,2012
6915,1990
6919,1987
6923,1986
6927,1971
6931,1936
6935,1927
6939,1933
6943,1934
6947,1930
6951,1931
6955,1937
6959,1936
6963,1936
6967,1933
6971,1946
6975,1946
6979,1943
6983,1934
6987,1929
6991,1873
6995,1744
6999,1653
7003,1801
7007,2352
7011,3199
7015,4095
7019,4095
7023,4095
7027,4095
7031,3465
7035,2596
7039,2109
7043,1945
7047,1919
7051,1917
7055,1906
7059,1884
7063,1847
7067,1821
7071,1819
7075,1821
7079,1813
7083,1807
7087,1811
7091,1815
7095,1814
7099,1810
7103,1823
7107,1838
7111,1835
7115,1840
7119,1840
7123,1854
7127,1853
7131,1847
7135,1855
7139,1866
7143,1867
7147,1859
7151,1866
7155,1879
7159,1891
7163,1882
7167,1894
7171,1904
7175,1913
7179,1920
7183,1920
7187,1935
7191,1949
7195,1959
7199,1957
7203,1970
7207,1989
7211,1997
7215,1997
7219,2006
7223,2029
7227,2044
7231,2046
7235,2064
7239,2091
7243,2097
7247,2098
7251,2109
7255,2126
7259,2139
7263,2143
7267,2143
7271,2144
7275,2133
7279,2114
7283,2081
7287,2046
7291,2015
7295,1974
7299,1930
7303,1913
7307,1893
7311,1872
7315,1845
7319,1840
7323,1849
7327,1840
7331,1832
7335,1834
7339,1851
7343,1847
7347,1840
7351,1840
7355,1849
7359,1851
7363,1846
7367,1851
7371,1856
7375,1865
7379,1858
7383,1854
7387,1869
7391,1874
7395,1873
7399,1863
7403,1869
7407,1874
7411,1872
7415,1861
7419,1860
7423,1873
7427,1881
7431,1872
7435,1872
7439,1883
7443,1886
7447,1873
7451,1873
7455,1882
7459,1894
7463,1889
7467,1886
7471,1893
7475,1894
7479,1891
7483,1887
7487,1898
7491,1900
7495,1900
7499,1891
7503,1889
7507,1904
7511,1906
7515,1895
7519,1904
7523,1915
7527,1912
7531,1907
7535,1906
7539,1919
7543,1911
7547,1905
7551,1903
7555,1908
7559,1915
7563,1918
7567,1910
7571,1905
7575,1925
7579,1927
7583,1915
7587,1849
7591,1904
7595,1927
7599,1919
7603,1923
7607,1933
7611,1929
7615,1927
7619,1926
7623,1931
7627,1905
7631,1936
7635,1941
7639,1937
7643,1945
7647,1936
7651,1933
7655,1938
7659,1937
7663,1936
7667,1936
7671,1966
7675,1946
7679,1936
7683,1945
7687,1977
7691,2003
7695,2023
7699,2026
7703,2032
7707,2035
7711,2019
7715,1998
7719,1991
7723,1987
7727,1968
7731,1945
7735,1942
7739,1954
7743,1953
7747,1948
7751,1945
7755,1951
7759,1951
7763,1947
7767,1952
7771,1963
7775,1965
7779,1957
7783,1936
7787,1888
7791,1775
7795,1682
7799,1795
7803,2302
7807,3106
7811,4095
7815,4095
7819,4095
7823,4095
7827,3383
7831,2543
7835,2094
7839,1955
7843,1946
7847,1935
7851,1925
7855,1904
7859,1881
7863,1851
7867,1837
7871,1836
7875,1834
7879,1827
7883,1811
7887,1828
7891,1839
7895,1829
7899,1831
7903,1840
7907,1855
7911,1856
7915,1853
7919,1857
7923,1869
7927,1872
7931,1870
7935,1878
7939,1890
7943,1891
7947,1889
7951,1893
7955,1906
7959,1913
7963,1909
7967,1911
7971,1932
7975,1939
7979,1939
7983,1939
7987,1959
7991,1977
7995,1975
7999,1983
8003,2000
8007,2021
8011,2027
8015,2029
8019,2043
8023,2064
8027,2077
8031,2074
8035,2087
8039,2112
8043,2115
8047,2114
8051,2128
8055,2148
8059,2154
8063,2149
8067,2147
8071,2151
8075,2139
8079,2103
8083,2065
8087,2034
8091,2000
8095,1966
8099,1924
8103,1904
8107,1886
8111,1865
8115,1845
8119,1843
8123,1852
8127,1845
8131,1840
8135,1842
8139,1843
8143,1843
8147,1841
8151,1840
8155,1848
8159,1855
8163,1847
8167,1852
8171,1858
8175,1866
8179,1871
8183,1863
8187,1869
8191,1875
8195,1873
8199,1866
8203,1873
8207,1886
8211,1882
8215,1871
8219,1871
8223,1879
8227,1873
8231,1871
8235,1875
8239,1886
8243,1885
8247,1872
8251,1873
8255,1878
8259,1882
8263,1874
8267,1872
8271,1878
8275,1886
8279,1881
8283,1877
8287,1883
8291,1898
8295,1888
8299,1883
8303,1895
8307,1904
8311,1898
8315,1893
8319,1891
8323,1899
8327,1898
8331,1890
8335,1894
8339,1905
8343,1909
8347,1904
8351,1904
8355,1920
8359,1914
8363,1904
8367,1907
8371,1914
8375,1921
8379,1911
8383,1909
8387,1918
8391,1925
8395,1920
8399,1915
8403,1923
8407,1931
8411,1931
8415,1919
8419,1923
8423,1931
8427,1932
8431,1934
8435,1934
8439,1937
8443,1936
8447,1922
8451,1921
8455,1937
8459,1942
8463,1936
8467,1931
8471,1935
8475,1936
8479,1936
8483,1931
8487,1949
8491,1947
8495,1937
8499,1941
8503,1968
8507,2002
8511,2015
8515,2022
8519,2031
8523,2036
8527,2022
8531,1985
8535,2027
8539,2003
8543,2000
8547,1955
8551,1974
8555,1947
8559,1960
8563,1957
8567,1955
8571,1968
8575,1968
8579,1966
8583,1954
8587,1957
8591,1981
8595,1955
8599,1954
8603,1936
8607,1856
8611,1738
8615,1712
8619,1985
8623,2608
8627,3511
8631,4095
8635,4095
8639,4095
8643,3677
8647,2752
8651,2207
8655,1995
8659,1962
8663,1950
8667,1936
8671,1915
8675,1898
8679,1859
8683,1849
8687,1849
8691,1856
8695,1841
8699,1841
8703,1846
8707,1857
8711,1853
8715,1845
8719,1851
8723,1866
8727,1861
8731,1856
8735,1859
8739,1872
8743,1878
8747,1873
8751,1881
8755,1888
8759,1898
8763,1892
8767,1898
8771,1904
8775,1907
8779,1910
8783,1917
8787,1937
8791,1945
8795,1949
8799,1946
8803,1968
8807,1982
8811,1989
8815,1993
8819,2001
8823,2030
8827,2033
8831,2038
8835,2062
8839,2081
8843,2088
8847,2086
8851,2101
8855,2116
8859,2128
8863,2127
8867,2129
8871,2155
8875,2162
8879,2160
8883,2160
8887,2165
8891,2153
8895,2128
8899,2089
8903,2061
8907,2017
8911,1979
8915,1935
8919,1913
8923,1897
8927,1872
8931,1851
8935,1840
8939,1845
8943,1842
8947,1833
8951,1835
8955,1840
8959,1843
8963,1834
8967,1840
8971,1847
8975,1855
8979,1853
8983,1858
8987,1857
8991,1863
8995,1858
8999,1855
9003,1861
9007,1875
9011,1873
9015,1862
9019,1866
9023,1872
9027,1872
9031,1866
9035,1870
9039,1879
9043,1878
9047,1871
9051,1872
9055,1882
9059,1885
9063,1882
9067,1874
9071,1890
9075,1893
9079,1880
9083,1879
9087,1895
9091,1898
9095,1886
9099,1879
9103,1893
9107,1898
9111,1894
9115,1891
9119,1890
9123,1903
9127,1895
9131,1889
9135,1900
9139,1905
9143,1904
9147,1895
9151,1899
9155,1906
9159,1908
9163,1907
9167,1906
9171,1911
9175,1917
9179,1913
9183,1913
9187,1924
9191,1921
9195,1919
9199,1917
9203,1914
9207,1931
9211,1930
9215,1929
9219,1933
9223,1939
9227,1934
9231,1920
9235,1927
9239,1935
9243,1935
9247,1930
9251,1936
9255,1936
9259,1942
9263,1936
9267,1936
9271,1947
9275,1947
9279,1947
9283,1939
9287,1951
9291,1947
9295,1939
9299,1937
9303,1947
9307,1962
9311,1958
9315,1943
9319,1952
9323,1955
9327,1951
9331,1950
9335,1953
9339,1967
9343,1957
9347,1940
9351,1947
9355,1972
9359,1998
9363,2003
9367,2020
9371,2037
9375,2039
9379,2033
9383,2021
9387,2021
9391,2010
9395,1989
9399,1963
9403,1954
9407,1967
9411,1965
9415,1954
9419,1915
9423,1967
9427,1954
9431,1949
9435,1951
9439,1951
9443,1930
9447,1972
9451,1973
9455,1957
9459,1880
9463,1730
9467,1680
9471,1904
9475,2480
9479,3340
9483,4095
9487,4095
9491,4095
9495,4032
9499,2992
9503,2338
9507,2029
9511,1953
9515,1936
9519,1936
9523,1920
9527,1891
9531,1859
9535,1845
9539,1842
9543,1838
9547,1831
9551,1827
9555,1840
9559,1840
9563,1838
9567,1838
9571,1853
9575,1855
9579,1842
9583,1843
9587,1858
9591,1859
9595,1859
9599,1866
9603,1872
9607,1877
9611,1886
9615,1882
9619,1899
9623,1906
9627,1907
9631,1907
9635,1915
9639,1926
9643,1930
9647,1926
9651,1927
9655,1938
9659,1945
9663,1946
9667,1956
9671,1977
9675,1995
9679,2000
9683,2014
9687,2035
9691,2058
9695,2064
9699,2069
9703,2081
9707,2101
9711,2101
9715,2105
9719,2124
9723,2135
9727,2142
9731,2138
9735,2158
9739,2166
9743,2150
9747,2124
9751,2096
9755,2062
9759,2019
9763,1968
9767,1941
9771,1921
9775,1891
9779,1856
9783,1839
9787,1834
9791,1833
9795,1821
9799,1813
9803,1822
9807,1829
9811,1824
9815,1818
9819,1833
9823,1840
9827,1833
9831,1834
9835,1840
9839,1849
9843,1843
9847,1837
9851,1840
9855,1850
9859,1847
9863,1847
9867,1851
9871,1862
9875,1863
9879,1855
9883,1856
9887,1872
9891,1872
9895,1865
9899,1857
9903,1872
9907,1875
9911,1872
9915,1873
9919,1872
9923,1885
9927,1875
9931,1870
9935,1873
9939,1886
9943,1881
9947,1872
9951,1879
9955,1888
9959,1885
9963,1881
9967,1881
9971,1887
9975,1889
9979,1879
9983,1885
9987,1895
9991,1901
9995,1889
9999,1892
10003,1903
10007,1905
10011,1898
10015,1897
10019,1898
10023,1904
10027,1901
10031,1898
10035,1898
10039,1910
10043,1909
10047,1902
10051,1913
10055,1920
10059,1921
10063,1913
10067,1907
10071,1919
10075,1924
10079,1925
10083,1922
10087,1929
10091,1936
10095,1927
10099,1921
10103,1936
10107,1938
10111,1930
10115,1925
10119,1935
10123,1942
10127,1939
10131,1937
10135,1941
10139,1950
10143,1941
10147,1934
10151,1941
10155,1949
10159,1951
10163,1946
10167,1950
10171,1956
10175,1956
10179,1943
10183,1946
10187,1947
10191,1950
10195,1949
10199,1947
10203,1952
10207,1959
10211,1947
10215,1951
10219,1984
10223,2021
10227,2035
10231,2043
10235,2045
10239,2039
10243,2023
10247,2004
10251,2000
10255,2000
10259,1987
10263,1954
10267,1943
10271,1959
10275,1966
10279,1961
10283,1957
10287,1968
10291,1973
10295,1962
10299,1958
10303,1963
10307,1968
10311,1965
10315,1952
10319,1926
10323,1838
10327,1715
10331,1698
10335,2019
10339,2693
10343,3749
10347,4095
10351,4095
10355,4095
10359,3775
10363,2816
10367,2229
10371,2002
10375,1946
10379,1930
10383,1935
10387,1915
10391,1888
10395,1856
10399,1850
10403,1843
10407,1844
10411,1839
10415,1823
10419,1815
10423,1835
10427,1833
10431,1830
10435,1840
10439,1856
10443,1847
10447,1845
10451,1854
10455,1861
10459,1867
10463,1865
10467,1872
10471,1891
10475,1901
10479,1879
10483,1883
10487,1897
10491,1904
10495,1905
10499,1909
10503,1921
10507,1936
10511,1936
10515,1936
10519,1958
10523,1971
10527,1975
10531,1971
10535,1984
10539,2000
10543,2015
10547,2027
10551,2043
10555,2067
10559,2084
10563,2089
10567,2096
10571,2122
10575,2128
10579,2129
10583,2144
10587,2154
10591,2163
10595,2162
10599,2167
10603,2171
10607,2159
10611,2128
10615,2091
10619,2047
10623,2017
10627,1975
10631,1933
10635,1911
10639,1891
10643,1870
10647,1841
10651,1827
10655,1826
10659,1821
10663,1811
10667,1814
10671,1830
10675,1831
10679,1822
10683,1826
10687,1831
10691,1833
10695,1835
10699,1824
10703,1840
10707,1846
10711,1839
10715,1839
10719,1851
10723,1855
10727,1853
10731,1848
10735,1857
10739,1858
10743,1863
10747,1855
10751,1859
10755,1872
10759,1873
10763,1872
10767,1870
10771,1874
10775,1875
10779,1865
10783,1866
10787,1871
10791,1872
10795,1859
10799,1862
10803,1875
10807,1885
10811,1875
10815,1870
10819,1870
10823,1885
10827,1883
10831,1878
10835,1885
10839,1895
10843,1881
10847,1872
10851,1879
10855,1888
10859,1886
10863,1882
10867,1887
10871,1904
10875,1906
10879,1900
10883,1889
10887,1895
10891,1903
10895,1886
10899,1885
10903,1902
10907,1907
10911,1901
10915,1895
10919,1904
10923,1907
10927,1904
10931,1901
10935,1907
10939,1919
10943,1921
10947,1915
10951,1927
10955,1929
10959,1925
10963,1914
10967,1919
10971,1929
10975,1922
10979,1916
10983,1909
10987,1925
10991,1934
10995,1918
10999,1917
11003,1923
11007,1935
11011,1925
11015,1924
11019,1931
11023,1938
11027,1936
11031,1933
11035,1935
11039,1946
11043,1947
11047,1937
11051,1939
11055,1943
11059,1946
11063,1939
11067,1942
11071,1952
11075,1946
11079,1962
11083,1983
11087,2010
11091,2023
11095,2029
11099,2030
11103,2029
11107,2025
11111,2002
11115,1990
11119,1991
11123,1983
11127,1951
11131,1936
11135,1941
11139,1951
11143,1954
11147,1951
11151,1957
11155,1968
11159,1963
11163,1958
11167,1962
11171,1971
11175,1970
11179,1963
11183,1911
11187,1808
11191,1703
11195,1762
11199,2181
11203,2929
11207,4095
11211,4095
11215,4095
11219,4095
11223,3454
11227,2603
11231,2122
11235,1971
11239,1955
11243,1936
11247,1913
11251,1843
11255,1874
11259,1811
11263,1834
11267,1822
11271,1834
11275,1822
11279,1799
11283,1809
11287,1835
11291,1839
11295,1834
11299,1831
11303,1851
11307,1858
11311,1858
11315,1858
11319,1871
11323,1879
11327,1878
11331,1862
11335,1886
11339,1899
11343,1905
11347,1891
11351,1903
11355,1913
11359,1917
11363,1921
11367,1935
11371,1939
11375,1943
11379,1949
11383,1961
11387,1979
11391,1994
11395,1999
11399,2009
11403,2029
11407,2046
11411,2061
11415,2067
11419,2090
11423,2108
11427,2110
11431,2112
11435,2132
11439,2157
11443,2159
11447,2157
11451,2170
11455,2191
11459,2192
11463,2187
11467,2179
11471,2165
11475,2131
11479,2089
11483,2055
11487,2020
11491,1982
11495,1935
11499,1904
11503,1883
11507,1871
11511,1854
11515,1840
11519,1840
11523,1845
11527,1840
11531,1825
11535,1829
11539,1837
11543,1835
11547,1829
11551,1840
11555,1840
11559,1841
11563,1842
11567,1844
11571,1856
11575,1857
11579,1846
11583,1854
11587,1862
11591,1873
11595,1872
11599,1866
11603,1872
11607,1872
11611,1870
11615,1867
11619,1877
11623,1881
11627,1873
11631,1872
11635,1878
11639,1885
11643,1883
11647,1878
11651,1884
11655,1894
11659,1892
11663,1887
11667,1889
11671,1891
11675,1891
11679,1886
11683,1883
11687,1889
11691,1892
11695,1882
11699,1879
11703,1890
11707,1897
11711,1883
11715,1882
11719,1889
11723,1901
11727,1892
11731,1889
11735,1902
11739,1904
11743,1899
11747,1893
11751,1903
11755,1907
11759,1909
11763,1901
11767,1904
11771,1907
11775,1910
11779,1902
11783,1906
11787,1914
11791,1920
11795,1920
11799,1919
11803,1920
11807,1923
11811,1915
11815,1915
11819,1920
11823,1923
11827,1920
11831,1915
11835,1926
11839,1931
11843,1935
11847,1929
11851,1927
11855,1930
11859,1933
11863,1934
11867,1930
11871,1939
11875,1936
11879,1936
11883,1935
11887,1945
11891,1940
11895,1936
11899,1935
11903,1945
11907,1947
11911,1948
11915,1936
11919,1948
11923,1949
11927,1939
11931,1939
11935,1951
11939,1963
11943,1955
11947,1940
11951,1950
11955,1972
11959,1998
11963,2012
11967,2023
11971,2043
11975,2053
11979,2034
11983,2028
11987,2014
11991,2007
11995,1984
11999,1969
12003,1955
12007,1954
12011,1949
12015,1947
12019,1959
12023,1967
12027,1957
12031,1939
12035,1942
12039,1958
12043,1953
12047,1954
12051,1959
12055,1962
12059,1920
12063,1805
12067,1695
12071,1739
12075,2111
12079,2815
12083,3974
12087,4095
12091,4095
12095,4095
12099,3621
12103,2717
12107,2182
12111,1968
12115,1922
12119,1935
12123,1925
12127,1895
12131,1859
12135,1847
12139,1840
12143,1834
12147,1821
12151,1838
12155,1835
12159,1827
12163,1818
12167,1835
12171,1840
12175,1847
12179,1840
12183,1849
12187,1855
12191,1862
12195,1859
12199,1861
12203,1857
12207,1877
12211,1876
12215,1883
12219,1894
12223,1904
12227,1902
12231,1901
12235,1919
12239,1933
12243,1936
12247,1930
12251,1941
12255,1959
12259,1964
12263,1968
12267,1979
12271,2000
12275,2007
12279,2017
12283,2031
12287,2058
12291,2078
12295,2083
12299,2096
12303,2118
12307,2129
12311,2140
12315,2144
12319,2161
12323,2176
12327,2178
12331,2187
12335,2195
12339,2205
12343,2192
12347,2167
12351,2144
12355,2113
12359,2066
12363,2018
12367,1979
12371,1946
12375,1916
12379,1872
12383,1852
12387,1849
12391,1839
12395,1823
12399,1811
12403,1814
12407,1824
12411,1819
12415,1818
12419,1830
12423,1838
12427,1833
12431,1826
12435,1831
12439,1840
12443,1839
12447,1833
12451,1840
12455,1851
12459,1848
12463,1840
12467,1845
12471,1853
12475,1857
12479,1855
12483,1857
12487,1868
12491,1870
12495,1857
12499,1865
12503,1873
12507,1878
12511,1867
12515,1862
12519,1876
12523,1879
12527,1877
12531,1872
12535,1875
12539,1879
12543,1875
12547,1872
12551,1879
12555,1889
12559,1881
12563,1873
12567,1877
12571,1888
12575,1889
12579,1881
12583,1885
12587,1889
12591,1890
12595,1878
12599,1878
12603,1893
12607,1894
12611,1886
12615,1889
12619,1897
12623,1904
12627,1903
12631,1894
12635,1901
12639,1909
12643,1903
12647,1904
12651,1909
12655,1913
12659,1904
12663,1900
12667,1901
12671,1904
12675,1904
12679,1902
12683,1902
12687,1919
12691,1916
12695,1911
12699,1907
12703,1919
12707,1921
12711,1917
12715,1925
12719,1936
12723,1936
12727,1924
12731,1927
12735,1934
12739,1936
12743,1936
12747,1923
12751,1929
12755,1943
12759,1937
12763,1936
12767,1936
12771,1940
12775,1942
12779,1936
12783,1940
12787,1951
12791,1955
12795,1949
12799,1943
12803,1954
12807,1953
12811,1947
12815,1941
12819,1955
12823,1959
12827,1955
12831,1951
12835,1953
12839,1965
12843,1978
12847,1998
12851,2017
12855,2029
12859,2031
12863,2032
12867,2034
12871,2033
12875,2016
12879,1990
12883,1981
12887,1973
12891,1959
12895,1952
12899,1939
12903,1958
12907,1963
12911,1959
12915,1955
12919,1956
12923,1964
12927,1959
12931,1943
12935,1953
12939,1963
12943,1958
12947,1918
12951,1825
12955,1712
12959,1700
12963,1986
12967,2651
12971,3681
12975,4095
12979,4095
12983,4095
12987,3839
12991,2845
12995,2230
12999,1975
13003,1934
13007,1930
13011,1921
13015,1895
13019,1872
13023,1856
13027,1838
13031,1827
13035,1831
13039,1829
13043,1817
13047,1813
13051,1830
13055,1840
13059,1840
13063,1834
13067,1821
13071,1840
13075,1851
13079,1847
13083,1863
13087,1831
13091,1884
13095,1875
13099,1873
13103,1887
13107,1896
13111,1893
13115,1876
13119,1906
13123,1915
13127,1915
13131,1916
13135,1931
13139,1951
13143,1959
13147,1954
13151,1938
13155,1979
13159,1995
13163,2000
13167,2022
13171,2045
13175,2047
13179,2064
13183,2083
13187,2105
13191,2124
13195,2124
13199,2133
13203,2155
13207,2162
13211,2166
13215,2175
13219,2192
13223,2203
13227,2199
13231,2189
13235,2171
13239,2144
13243,2102
13247,2058
13251,2015
13255,1982
13259,1941
13263,1898
13267,1877
13271,1863
13275,1840
13279,1808
13283,1805
13287,1807
13291,1805
13295,1799
13299,1808
13303,1812
13307,1812
13311,1803
13315,1806
13319,1808
13323,1822
13327,1815
13331,1805
13335,1814
13339,1826
13343,1827
13347,1815
13351,1821
13355,1834
13359,1837
13363,1824
13367,1837
13371,1849
13375,1847
13379,1840
13383,1842
13387,1853
13391,1857
13395,1842
13399,1847
13403,1855
13407,1856
13411,1854
13415,1851
13419,1869
13423,1866
13427,1856
13431,1854
13435,1855
13439,1861
13443,1858
13447,1856
13451,1859
13455,1871
13459,1865
13463,1856
13467,1863
13471,1873
13475,1872
13479,1863
13483,1868
13487,1877
13491,1877
13495,1869
13499,1872
13503,1875
13507,1878
13511,1873
13515,1875
13519,1883
13523,1889
13527,1882
13531,1877
13535,1893
13539,1898
13543,1895
13547,1893
13551,1892
13555,1900
13559,1899
13563,1893
13567,1897
13571,1904
13575,1905
13579,1900
13583,1903
13587,1917
13591,1911
13595,1902
13599,1904
13603,1904
13607,1905
13611,1909
13615,1911
13619,1920
13623,1915
13627,1909
13631,1907
13635,1925
13639,1936
13643,1932
13647,1918
13651,1922
13655,1935
13659,1930
13663,1930
13667,1933
13671,1938
13675,1930
13679,1921
13683,1930
13687,1936
13691,1936
13695,1929
13699,1936
13703,1938
13707,1936
13711,1932
13715,1930
13719,1937
13723,1941
13727,1937
13731,1942
13735,1958
13739,1955
13743,1943
13747,1936
13751,1965
13755,1997
13759,2005
13763,2001
13767,2010
13771,2022
13775,2021
13779,2005
13783,1991
13787,1989
13791,1985
13795,1963
13799,1945
13803,1949
13807,1946
13811,1934
13815,1935
13819,1953
13823,1959
13827,1954
13831,1949
13835,1951
13839,1957
13843,1946
13847,1947
13851,1955
13855,1948
13859,1881
13863,1751
13867,1680
13871,1792
13875,2255
13879,2990
13883,4095
13887,4095
13891,4095
13895,4083
13899,3059
13903,2381
13907,2046
13911,1947
13915,1940
13919,1946
13923,1925
13927,1890
13931,1861
13935,1852
13939,1849
13943,1831
13947,1822
13951,1829
13955,1840
13959,1840
13963,1835
13967,1845
13971,1855
13975,1863
13979,1838
13983,1859
13987,1866
13991,1871
13995,1863
13999,1872
14003,1905
14007,1887
14011,1883
14015,1903
14019,1924
14023,1917
14027,1915
14031,1895
14035,1930
14039,1947
14043,1941
14047,1945
14051,1955
14055,1974
14059,1990
14063,2000
14067,2017
14071,2032
14075,2031
14079,2032
14083,2059
14087,2081
14091,2103
14095,2112
14099,2126
14103,2148
14107,2159
14111,2156
14115,2165
14119,2186
14123,2196
14127,2202
14131,2207
14135,2223
14139,2225
14143,2203
14147,2176
14151,2143
14155,2102
14159,2062
14163,2002
14167,1967
14171,1931
14175,1895
14179,1859
14183,1842
14187,1838
14191,1825
14195,1808
14199,1804
14203,1813
14207,1814
14211,1802
14215,1799
14219,1808
14223,1813
14227,1807
14231,1799
14235,1811
14239,1822
14243,1809
14247,1807
14251,1818
14255,1833
14259,1835
14263,1834
14267,1843
14271,1852
14275,1842
14279,1839
14283,1843
14287,1859
14291,1860
14295,1846
14299,1856
14303,1871
14307,1867
14311,1860
14315,1862
14319,1869
14323,1873
14327,1863
14331,1866
14335,1872
14339,1884
14343,1872
14347,1861
14351,1870
14355,1872
14359,1868
14363,1872
14367,1877
14371,1887
14375,1873
14379,1866
14383,1872
14387,1886
14391,1889
14395,1878
14399,1877
14403,1889
14407,1898
14411,1889
14415,1888
14419,1902
14423,1905
14427,1903
14431,1895
14435,1906
14439,1917
14443,1914
14447,1899
14451,1905
14455,1917
14459,1914
14463,1908
14467,1920
14471,1926
14475,1922
14479,1908
14483,1911
14487,1923
14491,1921
14495,1919
14499,1919
14503,1927
14507,1925
14511,1914
14515,1920
14519,1933
14523,1933
14527,1931
14531,1936
14535,1936
14539,1938
14543,1934
14547,1933
14551,1945
14555,1955
14559,1939
14563,1920
14567,1935
14571,1951
14575,1961
14579,1939
14583,1945
14587,1958
14591,1970
14595,1959
14599,1950
14603,1951
14607,1959
14611,1953
14615,1955
14619,1967
14623,1968
14627,1965
14631,1965
14635,1971
14639,1975
14643,1966
14647,1966
14651,1968
14655,1978
14659,1974
14663,1969
14667,1977
14671,1986
14675,1994
14679,2003
14683,2032
14687,2045
14691,2059
14695,2061
14699,2070
14703,2073
14707,2056
14711,2023
14715,2007
14719,2008
14723,1995
14727,1982
14731,1975
14735,1987
14739,1989
14743,1979
14747,1982
14751,1987
14755,1995
14759,1984
14763,1968
14767,1984
14771,1997
14775,1985
14779,1981
14783,1969
14787,1923
14791,1815
14795,1744
14799,1867
14803,2293
14807,2959
14811,3970
14815,4095
14819,4095
14823,3493
14827,2699
14831,2198
14835,2015
14839,1991
14843,1983
14847,1970
14851,1959
14855,1947
14859,1924
14863,1906
14867,1902
14871,1899
14875,1890
14879,1885
14883,1897
14887,1899
14891,1902
14895,1894
14899,1906
14903,1923
14907,1909
14911,1906
14915,1908
14919,1920
14923,1943
14927,1920
14931,1911
14935,1936
14939,1951
14943,1938
14947,1970
14951,1966
14955,1979
14959,1968
14963,1968
14967,1979
14971,2000
14975,2001
14979,2005
14983,2019
14987,2042
14991,2041
14995,2033
14999,2053
15003,2083
15007,2104
15011,2102
15015,2113
15019,2129
15023,2147
15027,2151
15031,2160
15035,2181
15039,2193
15043,2193
15047,2194
15051,2209
15055,2212
15059,2219
15063,2209
15067,2219
15071,2209
15075,2181
15079,2142
15083,2100
15087,2070
15091,2019
15095,1968
15099,1933
15103,1909
15107,1893
15111,1863
15115,1846
15119,1854
15123,1847
15127,1829
15131,1830
15135,1836
15139,1840
15143,1834
15147,1821
15151,1829
15155,1838
15159,1821
15163,1818
15167,1840
15171,1847
15175,1843
15179,1835
15183,1847
15187,1856
15191,1856
15195,1856
15199,1855
15203,1863
15207,1863
15211,1857
15215,1865
15219,1883
15223,1881
15227,1875
15231,1872
15235,1883
15239,1876
15243,1872
15247,1872
15251,1879
15255,1884
15259,1877
15263,1872
15267,1872
15271,1876
15275,1875
15279,1867
15283,1875
15287,1883
15291,1885
15295,1878
15299,1883
15303,1894
15307,1897
15311,1878
15315,1885
15319,1899
15323,1899
15327,1886
15331,1879
15335,1891
15339,1904
15343,1894
15347,1897
15351,1905
15355,1901
15359,1901
15363,1898
15367,1904
15371,1905
15375,1905
15379,1904
15383,1904
15387,1910
15391,1909
15395,1904
15399,1909
15403,1921
15407,1920
15411,1911
15415,1919
15419,1931
15423,1924
15427,1917
15431,1917
15435,1922
15439,1922
15443,1921
15447,1924
15451,1933
15455,1936
15459,1935
15463,1931
15467,1936
15471,1941
15475,1936
15479,1933
15483,1935
15487,1943
15491,1936
15495,1925
15499,1929
15503,1941
15507,1947
15511,1936
15515,1936
15519,1938
15523,1942
15527,1939
15531,1947
15535,1963
15539,1965
15543,1946
15547,1939
15551,1945
15555,1954
15559,1963
15563,1951
15567,1955
15571,1968
15575,1984
15579,2000
15583,2010
15587,2026
15591,2031
15595,2019
15599,2015
15603,2019
15607,2010
15611,1996
15615,1978
15619,1971
15623,1955
15627,1943
15631,1951
15635,1955
15639,1959
15643,1953
15647,1955
15651,1964
15655,1968
15659,1954
15663,1947
15667,1962
15671,1968
15675,1968
15679,1943
15683,1891
15687,1797
15691,1734
15695,1855
15699,2256
15703,2874
15707,3714
15711,4095
15715,4049
15719,3264
15723,2595
15727,2155
15731,1984
15735,1970
15739,1971
15743,1953
15747,1936
15751,1920
15755,1904
15759,1882
15763,1872
15767,1877
15771,1882
15775,1877
15779,1871
15783,1877
15787,1893
15791,1888
15795,1885
15799,1891
15803,1913
15807,1927
15811,1904
15815,1888
15819,1917
15823,1949
15827,1917
15831,1926
15835,1923
15839,1933
15843,1936
15847,1952
15851,1943
15855,1951
15859,1952
15863,1954
15867,1971
15871,1989
15875,1989
15879,1990
15883,2004
15887,2019
15891,2025
15895,2032
15899,2058
15903,2078
15907,2094
15911,2103
15915,2115
15919,2135
15923,2150
15927,2155
15931,2163
15935,2185
15939,2198
15943,2201
15947,2197
15951,2225
15955,2240
15959,2231
15963,2222
15967,2206
15971,2192
15975,2148
15979,2091
15983,2045
15987,2014
15991,1969
15995,1924
15999,1894
16003,1882
16007,1861
16011,1835
16015,1829
16019,1840
16023,1834
16027,1813
16031,1822
16035,1822
16039,1823
16043,1818
16047,1815
16051,1828
16055,1834
16059,1828
16063,1826
16067,1840
16071,1840
16075,1834
16079,1827
16083,1837
16087,1845
16091,1841
16095,1837
16099,1845
16103,1856
16107,1855
16111,1851
16115,1854
16119,1859
16123,1865
16127,1860
16131,1861
16135,1871
16139,1874
16143,1859
16147,1858
16151,1870
16155,1879
16159,1874
16163,1873
16167,1879
16171,1883
16175,1883
16179,1885
16183,1890
16187,1894
16191,1889
16195,1882
16199,1891
16203,1901
16207,1898
16211,1882
16215,1888
16219,1894
16223,1894
16227,1884
16231,1885
16235,1899
16239,1898
16243,1887
16247,1889
16251,1904
16255,1904
16259,1895
16263,1887
16267,1901
16271,1905
16275,1898
16279,1897
16283,1901
16287,1909
16291,1913
16295,1904
16299,1905
16303,1917
16307,1911
16311,1909
16315,1915
16319,1924
16323,1919
16327,1909
16331,1916
16335,1925
16339,1922
16343,1919
16347,1913
16351,1920
16355,1923
16359,1919
16363,1919
16367,1927
16371,1933
16375,1923
16379,1919
16383,1927
16387,1934
16391,1929
16395,1925
16399,1930
16403,1937
16407,1936
16411,1925
16415,1936
16419,1947
16423,1941
16427,1936
16431,1931
16435,1946
16439,1950
16443,1936
16447,1933
16451,1943
16455,1951
16459,1946
16463,1943
16467,1953
16471,1958
16475,1952
16479,1938
16483,1943
16487,1951
16491,1951
16495,1946
16499,1943
16503,1948
16507,1947
16511,1938
16515,1947
16519,1957
16523,1959
16527,1951
16531,1951
16535,1962
16539,1959
16543,1953
16547,1968
16551,2001
16555,2022
16559,2020
16563,2021
16567,2034
16571,2042
16575,2032
16579,2007
16583,2009
16587,2002
16591,1979
16595,1954
16599,1953
16603,1966
16607,1961
16611,1958
16615,1962
16619,1968
16623,1963
16627,1954
16631,1954
16635,1967
16639,1971
16643,1969
16647,1967
16651,1970
16655,1938
16659,1834
16663,1717
16667,1739
16671,2071
16675,2707
16679,3633
16683,4095
16687,4095
16691,4095
16695,3985
16699,2961
16703,2309
16707,2000
16711,1930
16715,1927
16719,1904
16723,1902
16727,1870
16731,1875
16735,1840
16739,1839
16743,1808
16747,1838
16751,1823
16755,1855
16759,1822
16763,1822
16767,1839
16771,1855
16775,1840
16779,1830
16783,1840
16787,1855
16791,1856
16795,1844
16799,1847
16803,1858
16807,1856
16811,1850
16815,1857
16819,1872
16823,1886
16827,1878
16831,1887
16835,1899
16839,1904
16843,1904
16847,1906
16851,1919
16855,1930
16859,1936
16863,1935
16867,1958
16871,1975
16875,1981
16879,1983
16883,2001
16887,2031
16891,2042
16895,2063
16899,2089
16903,2112
16907,2126
16911,2131
16915,2146
16919,2162
16923,2176
16927,2181
16931,2199
16935,2209
16939,2212
16943,2182
16947,2157
16951,2128
16955,2095
16959,2032
16963,1993
16967,1956
16971,1930
16975,1890
16979,1859
16983,1847
16987,1834
16991,1814
16995,1797
16999,1799
17003,1807
17007,1805
17011,1792
17015,1799
17019,1812
17023,1817
17027,1815
17031,1810
17035,1818
17039,1810
17043,1807
17047,1808
17051,1823
17055,1830
17059,1821
17063,1812
17067,1819
17071,1829
17075,1821
17079,1818
17083,1834
17087,1838
17091,1840
17095,1834
17099,1840
17103,1846
17107,1843
17111,1838
17115,1837
17119,1844
17123,1850
17127,1840
17131,1847
17135,1855
17139,1857
17143,1849
17147,1847
17151,1861
17155,1872
17159,1857
17163,1854
17167,1869
17171,1874
17175,1866
17179,1861
17183,1873
17187,1875
17191,1872
17195,1865
17199,1869
17203,1873
17207,1877
17211,1870
17215,1870
17219,1883
17223,1881
17227,1872
17231,1873
17235,1879
17239,1884
17243,1878
17247,1872
17251,1874
17255,1885
17259,1879
17263,1882
17267,1885
17271,1894
17275,1890
17279,1884
17283,1901
17287,1906
17291,1904
17295,1895
17299,1897
17303,1904
17307,1904
17311,1901
17315,1905
17319,1915
17323,1906
17327,1904
17331,1906
17335,1920
17339,1922
17343,1910
17347,1905
17351,1915
17355,1919
17359,1919
17363,1913
17367,1918
17371,1929
17375,1920
17379,1920
17383,1936
17387,1939
17391,1935
17395,1925
17399,1934
17403,1937
17407,1947
17411,1939
17415,1936
17419,1943
17423,1942
17427,1936
17431,1941
17435,1950
17439,1953
17443,1942
17447,1947
17451,1959
17455,1957
17459,1943
17463,1941
17467,1950
17471,1958
17475,1950
17479,1949
17483,1943
17487,1949
17491,1949
17495,1942
17499,1952
17503,1954
17507,1957
17511,1968
17515,1994
17519,2018
17523,2028
17527,2021
17531,2032
17535,2039
17539,2033
17543,2019
17547,2006
17551,2000
17555,1988
17559,1968
17563,1947
17567,1953
17571,1962
17575,1952
17579,1950
17583,1963
17587,1971
17591,1968
17595,1953
17599,1957
17603,1967
17607,1962
17611,1950
17615,1957
17619,1948
17623,1873
17627,1738
17631,1648
17635,1834
17639,2387
17643,3248
17647,4095
17651,4095
17655,4095
17659,4095
17663,3886
17667,2831
17671,2228
17675,1968
17679,1891
17683,1885
17687,1897
17691,1874
17695,1840
17699,1826
17703,1824
17707,1808
17711,1793
17715,1795
17719,1796
17723,1795
17727,1797
17731,1801
17735,1810
17739,1819
17743,1809
17747,1818
17751,1824
17755,1840
17759,1833
17763,1835
17767,1845
17771,1856
17775,1856
17779,1854
17783,1859
17787,1872
17791,1872
17795,1874
17799,1881
17803,1895
17807,1898
17811,1893
17815,1907
17819,1921
17823,1926
17827,1930
17831,1949
17835,1969
17839,1982
17843,1985
17847,2000
17851,2027
17855,2047
17859,2064
17863,2079
17867,2112
17871,2141
17875,2151
17879,2160
17883,2186
17887,2208
17891,2210
17895,2219
17899,2234
17903,2240
17907,2227
17911,2199
17915,2171
17919,2141
17923,2091
17927,2035
17931,1990
17935,1955
17939,1918
17943,1878
17947,1856
17951,1843
17955,1833
17959,1823
17963,1814
17967,1815
17971,1811
17975,1805
17979,1805
17983,1815
17987,1828
17991,1830
17995,1819
17999,1823
18003,1837
18007,1835
18011,1826
18015,1830
18019,1839
18023,1838
18027,1831
18031,1841
18035,1855
18039,1845
18043,1844
18047,1847
18051,1862
18055,1861
18059,1850
18063,1845
18067,1857
18071,1865
18075,1863
18079,1859
18083,1870
18087,1871
18091,1866
18095,1869
18099,1874
18103,1883
18107,1877
18111,1874
18115,1879
18119,1894
18123,1889
18127,1883
18131,1884
18135,1902
18139,1895
18143,1886
18147,1882
18151,1899
18155,1904
18159,1895
18163,1891
18167,1899
18171,1903
18175,1891
18179,1894
18183,1904
18187,1911
18191,1907
18195,1898
18199,1907
18203,1911
18207,1916
18211,1904
18215,1914
18219,1919
18223,1918
18227,1910
18231,1917
18235,1926
18239,1924
18243,1917
18247,1919
18251,1926
18255,1924
18259,1919
18263,1917
18267,1920
18271,1925
18275,1917
18279,1921
18283,1927
18287,1934
18291,1932
18295,1922
18299,1931
18303,1936
18307,1936
18311,1928
18315,1935
18319,1945
18323,1936
18327,1927
18331,1933
18335,1940
18339,1937
18343,1935
18347,1939
18351,1955
18355,1951
18359,1941
18363,1938
18367,1950
18371,1957
18375,1947
18379,1941
18383,1949
18387,1962
18391,1957
18395,1954
18399,1962
18403,1968
18407,1958
18411,1947
18415,1958
18419,1964
18423,1965
18427,1961
18431,1963
18435,1963
18439,1967
18443,1974
18447,2002
18451,2027
18455,2035
18459,2034
18463,2035
18467,2047
18471,2046
18475,2026
18479,2011
18483,2010
18487,2005
18491,1972
18495,1957
18499,1965
18503,1971
18507,1968
18511,1963
18515,1966
18519,1978
18523,1973
18527,1965
18531,1968
18535,1978
18539,1978
18543,1984
18547,1969
18551,2020
18555,1861
18559,1729
18563,1685
18567,1975
18571,2588
18575,3569
18579,4095
18583,4095
18587,4095
18591,4095
18595,3611
18599,2672
18603,2127
18607,1924
18611,1904
18615,1917
18619,1911
18623,1882
18627,1852
18631,1838
18635,1823
18639,1813
18643,1803
18647,1807
18651,1810
18655,1809
18659,1807
18663,1808
18667,1821
18671,1831
18675,1819
18679,1825
18683,1834
18687,1843
18691,1843
18695,1840
18699,1845
18703,1862
18707,1861
18711,1857
18715,1872
18719,1879
18723,1887
18727,1878
18731,1889
18735,1904
18739,1906
18743,1904
18747,1907
18751,1927
18755,1943
18759,1949
18763,1958
18767,1977
18771,1999
18775,2007
18779,2019
18783,2042
18787,2068
18791,2086
18795,2101
18799,2131
18803,2156
18807,2160
18811,2169
18815,2190
18819,2219
18823,2226
18827,2224
18831,2234
18835,2238
18839,2219
18843,2187
18847,2144
18851,2113
18855,2065
18859,2005
18863,1961
18867,1933
18871,1903
18875,1867
18879,1836
18883,1822
18887,1815
18891,1808
18895,1795
18899,1803
18903,1807
18907,1803
18911,1794
18915,1803
18919,1808
18923,1811
18927,1808
18931,1813
18935,1819
18939,1825
18943,1811
18947,1821
18951,1831
18955,1835
18959,1828
18963,1834
18967,1842
18971,1849
18975,1839
18979,1837
18983,1842
18987,1847
18991,1846
18995,1843
18999,1856
19003,1866
19007,1856
19011,1854
19015,1861
19019,1874
19023,1872
19027,1863
19031,1870
19035,1883
19039,1882
19043,1877
19047,1878
19051,1885
19055,1883
19059,1875
19063,1882
19067,1890
19071,1898
19075,1888
19079,1879
19083,1888
19087,1894
19091,1895
19095,1886
19099,1895
19103,1905
19107,1904
19111,1893
19115,1904
19119,1911
19123,1905
19127,1899
19131,1905
19135,1922
19139,1919
19143,1918
19147,1919
19151,1927
19155,1927
19159,1910
19163,1906
19167,1914
19171,1918
19175,1915
19179,1917
19183,1925
19187,1930
19191,1922
19195,1920
19199,1924
19203,1925
19207,1927
19211,1923
19215,1932
19219,1934
19223,1934
19227,1923
19231,1923
19235,1936
19239,1939
19243,1932
19247,1933
19251,1943
19255,1946
19259,1937
19263,1938
19267,1946
19271,1948
19275,1936
19279,1935
19283,1941
19287,1947
19291,1945
19295,1945
19299,1951
19303,1956
19307,1946
19311,1936
19315,1945
19319,1961
19323,1963
19327,1958
19331,1963
19335,1968
19339,1965
19343,1954
19347,1962
19351,1990
19355,2016
19359,2020
19363,2027
19367,2034
19371,2037
19375,2032
19379,2023
19383,2014
19387,2007
19391,1988
19395,1963
19399,1949
19403,1961
19407,1959
19411,1954
19415,1957
19419,1963
19423,1957
19427,1952
19431,1963
19435,1971
19439,1969
19443,1959
19447,1962
19451,1969
19455,1967
19459,1896
19463,1776
19467,1686
19471,1815
19475,2288
19479,3079
19483,4095
19487,4095
19491,4095
19495,4095
19499,3347
19503,2522
19507,2090
19511,1943
19515,1946
19519,1957
19523,1933
19527,1899
19531,1877
19535,1872
19539,1865
19543,1849
19547,1838
19551,1846
19555,1843
19559,1824
19563,1845
19567,1856
19571,1863
19575,1856
19579,1861
19583,1873
19587,1881
19591,1877
19595,1873
19599,1887
19603,1904
19607,1903
19611,1899
19615,1911
19619,1920
19623,1917
19627,1911
19631,1926
19635,1942
19639,1952
19643,1951
19647,1961
19651,1980
19655,1985
19659,1983
19663,1993
19667,2015
19671,2037
19675,2039
19679,2047
19683,2080
19687,2097
19691,2106
19695,2118
19699,2149
19703,2167
19707,2183
19711,2190
19715,2209
19719,2231
19723,2238
19727,2240
19731,2255
19735,2267
19739,2268
19743,2241
19747,2213
19751,2182
19755,2137
19759,2082
19763,2038
19767,2000
19771,1955
19775,1918
19779,1885
19783,1865
19787,1847
19791,1830
19795,1823
19799,1827
19803,1827
19807,1822
19811,1808
19815,1810
19819,1822
19823,1831
19827,1821
19831,1826
19835,1840
19839,1836
19843,1831
19847,1831
19851,1843
19855,1841
19859,1837
19863,1837
19867,1850
19871,1855
19875,1847
19879,1849
19883,1856
19887,1861
19891,1847
19895,1845
19899,1860
19903,1872
19907,1870
19911,1869
19915,1868
19919,1872
19923,1873
19927,1871
19931,1872
19935,1889
19939,1879
19943,1871
19947,1870
19951,1874
19955,1873
19959,1865
19963,1870
19967,1881
19971,1884
19975,1882
19979,1878
19983,1886
19987,1893
19991,1888
19995,1885
