Timestamp,ECG Data
4,1951
7,1923
11,1893
15,1870
19,1861
23,1859
27,1846
31,1839
35,1833
39,1840
43,1840
47,1837
51,1833
55,1856
59,1856
63,1846
67,1851
71,1858
75,1859
79,1855
83,1852
87,1860
91,1863
95,1867
99,1856
103,1865
107,1869
111,1873
115,1879
119,1885
123,1889
127,1885
131,1879
135,1881
139,1893
143,1893
147,1878
151,1879
155,1890
159,1898
163,1892
167,1891
171,1900
175,1904
179,1902
183,1895
187,1902
191,1904
195,1895
199,1897
203,1904
207,1905
211,1905
215,1899
219,1907
223,1914
227,1914
231,1907
235,1917
239,1925
243,1924
247,1914
251,1921
255,1931
259,1928
263,1914
267,1907
271,1920
275,1925
279,1936
283,1963
287,2000
291,2021
295,2002
299,1984
303,1968
307,1968
311,1953
315,1937
319,1927
323,1924
327,1919
331,1920
335,1920
339,1933
343,1926
347,1920
351,1919
355,1936
359,1935
363,1927
367,1926
371,1934
375,1938
379,1926
383,1855
387,1761
391,1731
395,1919
399,2437
403,3203
407,4095
411,4095
415,4095
419,3315
423,2583
427,2130
431,1961
435,1937
439,1946
443,1936
447,1910
451,1887
455,1872
459,1860
463,1850
467,1845
471,1858
475,1858
479,1852
483,1847
487,1854
491,1865
495,1866
499,1863
503,1877
507,1882
511,1875
515,1872
519,1877
523,1894
527,1895
531,1894
535,1897
539,1910
543,1918
547,1910
551,1916
555,1923
559,1930
563,1920
567,1930
571,1939
575,1947
579,1948
583,1958
587,1968
591,1981
595,1985
599,1995
603,2003
607,2027
611,2031
615,2032
619,2047
623,2064
627,2068
631,2069
635,2079
639,2096
643,2101
647,2099
651,2107
655,2119
659,2119
663,2101
667,2078
671,2061
675,2002
679,1984
683,1940
687,1953
691,1969
695,1887
699,1855
703,1853
707,1874
711,1830
715,1838
719,1825
723,1808
727,1845
731,1866
735,1847
739,1856
743,1846
747,1842
751,1845
755,1856
759,1859
763,1851
767,1852
771,1860
775,1868
779,1862
783,1859
787,1870
791,1874
795,1868
799,1865
803,1872
807,1875
811,1875
815,1869
819,1882
823,1889
827,1883
831,1883
835,1885
839,1887
843,1889
847,1882
851,1897
855,1897
859,1890
863,1884
867,1879
871,1888
875,1898
879,1894
883,1890
887,1895
891,1903
895,1903
899,1903
903,1905
907,1906
911,1898
915,1902
919,1904
923,1918
927,1914
931,1913
935,1909
939,1922
943,1918
947,1910
951,1917
955,1921
959,1916
963,1904
967,1904
971,1909
975,1933
979,1948
983,1983
987,2012
991,2013
995,1989
999,1970
1003,1964
1007,1971
1011,1953
1015,1936
1019,1931
1023,1935
1027,1936
1031,1930
1035,1934
1039,1939
1043,1943
1047,1937
1051,1931
1055,1942
1059,1943
1063,1936
1067,1933
1071,1936
1075,1939
1079,1889
1083,1783
1087,1718
1091,1834
1095,2278
1099,2999
1103,4095
1107,4095
1111,4095
1115,3855
1119,2915
1123,2294
1127,2007
1131,1936
1135,1940
1139,1949
1143,1930
1147,1894
1151,1875
1155,1867
1159,1857
1163,1842
1167,1841
1171,1851
1175,1855
1179,1851
1183,1851
1187,1860
1191,1872
1195,1863
1199,1858
1203,1873
1207,1882
1211,1880
1215,1876
1219,1891
1223,1899
1227,1905
1231,1899
1235,1911
1239,1921
1243,1922
1247,1914
1251,1919
1255,1931
1259,1935
1263,1936
1267,1947
1271,1956
1275,1969
1279,1968
1283,1971
1287,1993
1291,1999
1295,2000
1299,2007
1303,2019
1307,2039
1311,2042
1315,2044
1319,2064
1323,2080
1327,2083
1331,2089
1335,2100
1339,2112
1343,2117
1347,2114
1351,2122
1355,2132
1359,2128
1363,2111
1367,2086
1371,2061
1375,2030
1379,1984
1383,1945
1387,1919
1391,1892
1395,1865
1399,1844
1403,1840
1407,1840
1411,1835
1415,1818
1419,1833
1423,1833
1427,1829
1431,1824
1435,1824
1439,1841
1443,1841
1447,1842
1451,1849
1455,1856
1459,1855
1463,1854
1467,1850
1471,1859
1475,1869
1479,1861
1483,1860
1487,1869
1491,1875
1495,1875
1499,1872
1503,1874
1507,1885
1511,1875
1515,1872
1519,1875
1523,1882
1527,1884
1531,1877
1535,1878
1539,1890
1543,1883
1547,1879
1551,1889
1555,1898
1559,1898
1563,1884
1567,1893
1571,1900
1575,1904
1579,1903
1583,1900
1587,1905
1591,1909
1595,1895
1599,1904
1603,1899
1607,1915
1611,1914
1615,1901
1619,1907
1623,1913
1627,1917
1631,1872
1635,1906
1639,1895
1643,1940
1647,1939
1651,1907
1655,1919
1659,1929
1663,1918
1667,1910
1671,1915
1675,1934
1679,1943
1683,1971
1687,2014
1691,2018
1695,2009
1699,1985
1703,1975
1707,1975
1711,1968
1715,1942
1719,1937
1723,1936
1727,1936
1731,1925
1735,1935
1739,1938
1743,1936
1747,1931
1751,1931
1755,1937
1759,1946
1763,1937
1767,1936
1771,1952
1775,1948
1779,1931
1783,1871
1787,1775
1791,1729
1795,1898
1799,2397
1803,3184
1807,4095
1811,4095
1815,4095
1819,3601
1823,2735
1827,2192
1831,1973
1835,1937
1839,1955
1843,1943
1847,1920
1851,1892
1855,1877
1859,1866
1863,1851
1867,1850
1871,1858
1875,1856
1879,1841
1883,1840
1887,1846
1891,1856
1895,1861
1899,1861
1903,1872
1907,1883
1911,1874
1915,1874
1919,1878
1923,1893
1927,1891
1931,1879
1935,1895
1939,1908
1943,1918
1947,1909
1951,1911
1955,1920
1959,1922
1963,1930
1967,1934
1971,1943
1975,1952
1979,1965
1983,1969
1987,1984
1991,1990
1995,1990
1999,1997
2003,2011
2007,2031
2011,2033
2015,2035
2019,2047
2023,2063
2027,2068
2031,2073
2035,2082
2039,2096
2043,2105
2047,2110
2051,2113
2055,2126
2059,2121
2063,2112
2067,2090
2071,2077
2075,2041
2079,2000
2083,1963
2087,1936
2091,1905
2095,1879
2099,1862
2103,1849
2107,1853
2111,1838
2115,1827
2119,1823
2123,1837
2127,1831
2131,1831
2135,1837
2139,1842
2143,1842
2147,1845
2151,1847
2155,1859
2159,1859
2163,1855
2167,1858
2171,1865
2175,1871
2179,1859
2183,1856
2187,1871
2191,1873
2195,1870
2199,1870
2203,1877
2207,1877
2211,1878
2215,1869
2219,1873
2223,1882
2227,1875
2231,1872
2235,1872
2239,1879
2243,1883
2247,1872
2251,1877
2255,1879
2259,1878
2263,1874
2267,1874
2271,1889
2275,1897
2279,1887
2283,1882
2287,1889
2291,1890
2295,1891
2299,1887
2303,1899
2307,1904
2311,1894
2315,1898
2319,1899
2323,1905
2327,1903
2331,1901
2335,1903
2339,1909
2343,1911
2347,1898
2351,1899
2355,1914
2359,1911
2363,1901
2367,1905
2371,1910
2375,1925
2379,1933
2383,1957
2387,1980
2391,2000
2395,1991
2399,1986
2403,1975
2407,1969
2411,1954
2415,1947
2419,1936
2423,1935
2427,1920
2431,1917
2435,1925
2439,1926
2443,1930
2447,1919
2451,1925
2455,1936
2459,1935
2463,1925
2467,1928
2471,1936
2475,1946
2479,1936
2483,1909
2487,1840
2491,1755
2495,1776
2499,2046
2503,2623
2507,3447
2511,4095
2515,4095
2519,3776
2523,2885
2527,2287
2531,2000
2535,1935
2539,1954
2543,1950
2547,1911
2551,1919
2555,1886
2559,1872
2563,1855
2567,1822
2571,1863
2575,1858
2579,1858
2583,1853
2587,1866
2591,1872
2595,1874
2599,1869
2603,1872
2607,1887
2611,1889
2615,1887
2619,1904
2623,1910
2627,1910
2631,1904
2635,1907
2639,1919
2643,1923
2647,1924
2651,1937
2655,1943
2659,1954
2663,1950
2667,1951
2671,1964
2675,1973
2679,1974
2683,1979
2687,1996
2691,2009
2695,2006
2699,2019
2703,2029
2707,2039
2711,2053
2715,2054
2719,2067
2723,2077
2727,2083
2731,2079
2735,2089
2739,2098
2743,2110
2747,2106
2751,2114
2755,2133
2759,2134
2763,2123
2767,2106
2771,2093
2775,2062
2779,2013
2783,1971
2787,1952
2791,1920
2795,1885
2799,1855
2803,1840
2807,1840
2811,1837
2815,1823
2819,1823
2823,1826
2827,1823
2831,1825
2835,1831
2839,1850
2843,1840
2847,1839
2851,1840
2855,1853
2859,1857
2863,1847
2867,1855
2871,1869
2875,1866
2879,1862
2883,1862
2887,1870
2891,1874
2895,1872
2899,1871
2903,1881
2907,1874
2911,1872
2915,1872
2919,1874
2923,1875
2927,1883
2931,1882
2935,1885
2939,1887
2943,1883
2947,1876
2951,1875
2955,1890
2959,1889
2963,1886
2967,1889
2971,1895
2975,1901
2979,1891
2983,1890
2987,1899
2991,1901
2995,1903
2999,1893
3003,1899
3007,1904
3011,1895
3015,1901
3019,1903
3023,1904
3027,1904
3031,1893
3035,1901
3039,1909
3043,1920
3047,1910
3051,1909
3055,1919
3059,1920
3063,1935
3067,1969
3071,2001
3075,2000
3079,1984
3083,1968
3087,1953
3091,1961
3095,1946
3099,1927
3103,1936
3107,1933
3111,1920
3115,1913
3119,1921
3123,1936
3127,1936
3131,1934
3135,1933
3139,1933
3143,1929
3147,1925
3151,1934
3155,1951
3159,1948
3163,1927
3167,1875
3171,1811
3175,1818
3179,2017
3183,2459
3187,3104
3191,3895
3195,3941
3199,3254
3203,2605
3207,2144
3211,1953
3215,1929
3219,1963
3223,1981
3227,1961
3231,1925
3235,1913
3239,1907
3243,1900
3247,1895
3251,1895
3255,1899
3259,1893
3263,1889
3267,1902
3271,1907
3275,1921
3279,1914
3283,1914
3287,1931
3291,1936
3295,1936
3299,1934
3303,1939
3307,1955
3311,1953
3315,1951
3319,1959
3323,1968
3327,1972
3331,1975
3335,1987
3339,1997
3343,1999
3347,1991
3351,2001
3355,2022
3359,2028
3363,2032
3367,2046
3371,2061
3375,2064
3379,2060
3383,2070
3387,2094
3391,2101
3395,2103
3399,2107
3403,2113
3407,2127
3411,2115
3415,2127
3419,2141
3423,2151
3427,2147
3431,2129
3435,2183
3439,2158
3443,2142
3447,2095
3451,2106
3455,2079
3459,2031
3463,1993
3467,1958
3471,1921
3475,1905
3479,1879
3483,1837
3487,1845
3491,1847
3495,1840
3499,1840
3503,1840
3507,1855
3511,1850
3515,1851
3519,1860
3523,1865
3527,1865
3531,1859
3535,1862
3539,1877
3543,1889
3547,1887
3551,1890
3555,1889
3559,1886
3563,1882
3567,1879
3571,1893
3575,1902
3579,1894
3583,1891
3587,1895
3591,1904
3595,1894
3599,1894
3603,1899
3607,1907
3611,1900
3615,1897
3619,1902
3623,1894
3627,1898
3631,1889
3635,1894
3639,1906
3643,1904
3647,1901
3651,1904
3655,1914
3659,1915
3663,1911
3667,1917
3671,1918
3675,1917
3679,1907
3683,1904
3687,1920
3691,1922
3695,1910
3699,1903
3703,1918
3707,1930
3711,1941
3715,1955
3719,1990
3723,2010
3727,2001
3731,1980
3735,1965
3739,1957
3743,1951
3747,1935
3751,1936
3755,1936
3759,1930
3763,1922
3767,1930
3771,1935
3775,1936
3779,1935
3783,1927
3787,1937
3791,1942
3795,1942
3799,1942
3803,1942
3807,1948
3811,1941
3815,1919
3819,1866
3823,1825
3827,1859
3831,2064
3835,2466
3839,3028
3843,3555
3847,3424
3851,2927
3855,2413
3859,2045
3863,1917
3867,1918
3871,1962
3875,1977
3879,1968
3883,1947
3887,1939
3891,1936
3895,1926
3899,1918
3903,1921
3907,1920
3911,1919
3915,1917
3919,1933
3923,1936
3927,1931
3931,1936
3935,1941
3939,1957
3943,1959
3947,1954
3951,1965
3955,1969
3959,1974
3963,1970
3967,1980
3971,1990
3975,1994
3979,1999
3983,1995
3987,2002
3991,2015
3995,2019
3999,2017
4003,2033
4007,2041
4011,2043
4015,2059
4019,2071
4023,2083
4027,2089
4031,2087
4035,2096
4039,2109
4043,2114
4047,2112
4051,2123
4055,2135
4059,2130
4063,2128
4067,2131
4071,2144
4075,2143
4079,2143
4083,2146
4087,2151
4091,2146
4095,2122
4099,2096
4103,2081
4107,2042
4111,2006
4115,1971
4119,1951
4123,1931
4127,1901
4131,1875
4135,1870
4139,1872
4143,1862
4147,1849
4151,1857
4155,1861
4159,1856
4163,1847
4167,1851
4171,1867
4175,1871
4179,1867
4183,1868
4187,1873
4191,1882
4195,1872
4199,1865
4203,1878
4207,1886
4211,1886
4215,1887
4219,1898
4223,1903
4227,1902
4231,1892
4235,1890
4239,1901
4243,1899
4247,1888
4251,1897
4255,1904
4259,1900
4263,1891
4267,1894
4271,1904
4275,1904
4279,1891
4283,1890
4287,1904
4291,1901
4295,1895
4299,1890
4303,1904
4307,1904
4311,1899
4315,1901
4319,1904
4323,1908
4327,1905
4331,1899
4335,1902
4339,1906
4343,1923
4347,1909
4351,1937
4355,1965
4359,1978
4363,1963
4367,1961
4371,1959
4375,1911
4379,1940
4383,1936
4387,1918
4391,1920
4395,1903
4399,1898
4403,1904
4407,1908
4411,1904
4415,1900
4419,1911
4423,1916
4427,1906
4431,1904
4435,1906
4439,1915
4443,1919
4447,1895
4451,1902
4455,1850
4459,1771
4463,1751
4467,1920
4471,2339
4475,2918
4479,3630
4483,3835
4487,3328
4491,2735
4495,2229
4499,1968
4503,1915
4507,1930
4511,1941
4515,1935
4519,1921
4523,1908
4527,1886
4531,1873
4535,1872
4539,1869
4543,1872
4547,1870
4551,1875
4555,1887
4559,1889
4563,1883
4567,1895
4571,1906
4575,1909
4579,1904
4583,1911
4587,1919
4591,1920
4595,1914
4599,1919
4603,1927
4607,1936
4611,1936
4615,1939
4619,1951
4623,1963
4627,1957
4631,1962
4635,1975
4639,1987
4643,1991
4647,1992
4651,2002
4655,2021
4659,2026
4663,2025
4667,2043
4671,2071
4675,2075
4679,2083
4683,2095
4687,2099
4691,2107
4695,2109
4699,2121
4703,2134
4707,2142
4711,2135
4715,2139
4719,2144
4723,2148
4727,2129
4731,2112
4735,2096
4739,2066
4743,2026
4747,1986
4751,1953
4755,1935
4759,1904
4763,1872
4767,1860
4771,1856
4775,1845
4779,1826
4783,1829
4787,1840
4791,1841
4795,1840
4799,1842
4803,1850
4807,1851
4811,1846
4815,1853
4819,1846
4823,1846
4827,1844
4831,1851
4835,1856
4839,1865
4843,1862
4847,1857
4851,1862
4855,1874
4859,1869
4863,1866
4867,1869
4871,1875
4875,1873
4879,1872
4883,1872
4887,1877
4891,1879
4895,1878
4899,1873
4903,1883
4907,1883
4911,1881
4915,1882
4919,1890
4923,1889
4927,1888
4931,1885
4935,1891
4939,1902
4943,1899
4947,1890
4951,1895
4955,1904
4959,1899
4963,1887
4967,1891
4971,1900
4975,1904
4979,1899
4983,1901
4987,1904
4991,1909
4995,1905
4999,1907
5003,1906
5007,1907
5011,1901
5015,1909
5019,1929
5023,1950
5027,1971
5031,1984
5035,1991
5039,1985
5043,1968
5047,1943
5051,1949
5055,1952
5059,1935
5063,1919
5067,1914
5071,1919
5075,1917
5079,1907
5083,1908
5087,1923
5091,1926
5095,1918
5099,1920
5103,1930
5107,1929
5111,1923
5115,1925
5119,1936
5123,1937
5127,1902
5131,1804
5135,1718
5139,1772
5143,2118
5147,2737
5151,3635
5155,4095
5159,4095
5163,4081
5167,3137
5171,2429
5175,2061
5179,1942
5183,1935
5187,1939
5191,1929
5195,1899
5199,1872
5203,1857
5207,1844
5211,1829
5215,1831
5219,1847
5223,1856
5227,1854
5231,1846
5235,1854
5239,1858
5243,1858
5247,1856
5251,1865
5255,1876
5259,1875
5263,1872
5267,1882
5271,1841
5275,1867
5279,1875
5283,1889
5287,1898
5291,1903
5295,1902
5299,1907
5303,1913
5307,1917
5311,1890
5315,1936
5319,1937
5323,1953
5327,1949
5331,1951
5335,1974
5339,1994
5343,1995
5347,2000
5351,2013
5355,2025
5359,2042
5363,2045
5367,2064
5371,2073
5375,2080
5379,2090
5383,2103
5387,2118
5391,2126
5395,2126
5399,2128
5403,2128
5407,2114
5411,2080
5415,2053
5419,2025
5423,1986
5427,1947
5431,1915
5435,1902
5439,1882
5443,1862
5447,1847
5451,1843
5455,1847
5459,1839
5463,1834
5467,1839
5471,1844
5475,1839
5479,1835
5483,1840
5487,1842
5491,1849
5495,1840
5499,1837
5503,1843
5507,1843
5511,1840
5515,1844
5519,1854
5523,1857
5527,1859
5531,1854
5535,1856
5539,1862
5543,1855
5547,1858
5551,1861
5555,1869
5559,1869
5563,1857
5567,1865
5571,1875
5575,1872
5579,1867
5583,1872
5587,1878
5591,1883
5595,1870
5599,1873
5603,1877
5607,1881
5611,1877
5615,1873
5619,1885
5623,1891
5627,1894
5631,1891
5635,1895
5639,1899
5643,1891
5647,1889
5651,1889
5655,1901
5659,1895
5663,1894
5667,1901
5671,1906
5675,1910
5679,1905
5683,1904
5687,1905
5691,1905
5695,1907
5699,1909
5703,1918
5707,1922
5711,1911
5715,1910
5719,1915
5723,1919
5727,1927
5731,1925
5735,1936
5739,1935
5743,1930
5747,1929
5751,1955
5755,1984
5759,1989
5763,1997
5767,2003
5771,2005
5775,1998
5779,1975
5783,1970
5787,1971
5791,1954
5795,1934
5799,1919
5803,1929
5807,1939
5811,1931
5815,1936
5819,1936
5823,1941
5827,1935
5831,1937
5835,1939
5839,1938
5843,1937
5847,1933
5851,1936
5855,1946
5859,1945
5863,1909
5867,1818
5871,1728
5875,1753
5879,2091
5883,2738
5887,3725
5891,4095
5895,4095
5899,4095
5903,3575
5907,2682
5911,2154
5915,1950
5919,1933
5923,1939
5927,1920
5931,1894
5935,1872
5939,1851
5943,1841
5947,1830
5951,1825
5955,1834
5959,1832
5963,1826
5967,1840
5971,1840
5975,1842
5979,1844
5983,1849
5987,1861
5991,1864
5995,1858
5999,1869
6003,1872
6007,1872
6011,1872
6015,1866
6019,1874
6023,1887
6027,1879
6031,1883
6035,1899
6039,1915
6043,1913
6047,1916
6051,1927
6055,1936
6059,1940
6063,1947
6067,1954
6071,1978
6075,1981
6079,1986
6083,2006
6087,2033
6091,2043
6095,2044
6099,2063
6103,2079
6107,2087
6111,2095
6115,2105
6119,2119
6123,2128
6127,2128
6131,2130
6135,2144
6139,2149
6143,2135
6147,2112
6151,2093
6155,2064
6159,2016
6163,1979
6167,1953
6171,1920
6175,1891
6179,1866
6183,1851
6187,1847
6191,1838
6195,1814
6199,1821
6203,1819
6207,1823
6211,1808
6215,1815
6219,1826
6223,1808
6227,1817
6231,1850
6235,1838
6239,1840
6243,1811
6247,1839
6251,1840
6255,1850
6259,1849
6263,1840
6267,1844
6271,1851
6275,1856
6279,1851
6283,1850
6287,1857
6291,1867
6295,1856
6299,1856
6303,1863
6307,1872
6311,1856
6315,1865
6319,1870
6323,1872
6327,1871
6331,1872
6335,1872
6339,1872
6343,1872
6347,1874
6351,1875
6355,1888
6359,1887
6363,1876
6367,1879
6371,1888
6375,1882
6379,1884
6383,1886
6387,1891
6391,1889
6395,1882
6399,1883
6403,1890
6407,1894
6411,1891
6415,1894
6419,1904
6423,1910
6427,1897
6431,1895
6435,1904
6439,1909
6443,1910
6447,1899
6451,1902
6455,1909
6459,1907
6463,1910
6467,1916
6471,1921
6475,1921
6479,1920
6483,1931
6487,1932
6491,1925
6495,1925
6499,1922
6503,1927
6507,1929
6511,1929
6515,1929
6519,1931
6523,1936
6527,1931
6531,1933
6535,1937
6539,1944
6543,1941
6547,1955
6551,1995
6555,2009
6559,2010
6563,2013
6567,2019
6571,2012
6575,1993
6579,1984
6583,1979
6587,1980
6591,1958
6595,1936
6599,1941
6603,1940
6607,1949
6611,1942
6615,1943
6619,1955
6623,1953
6627,1951
6631,1943
6635,1951
6639,1951
6643,1943
6647,1936
6651,1943
6655,1955
6659,1954
6663,1930
6667,1840
6671,1737
6675,1741
6679,2021
6683,2637
6687,3520
6691,4095
6695,4095
6699,4095
6703,3504
6707,2652
6711,2146
6715,1968
6719,1945
6723,1954
6727,1936
6731,1905
6735,1892
6739,1878
6743,1859
6747,1851
6751,1847
6755,1854
6759,1847
6763,1846
6767,1856
6771,1862
6775,1861
6779,1858
6783,1872
6787,1873
6791,1875
6795,1872
6799,1879
6803,1883
6807,1898
6811,1891
6815,1898
6819,1904
6823,1906
6827,1902
6831,1910
6835,1923
6839,1935
6843,1935
6847,1936
6851,1947
6855,1957
6859,1962
6863,1963
6867,1974
6871,1989
6875,1997
6879,2003
6883,2021
6887,2045
6891,2062
6895,2071
6899,2087
6903,2105
6907,2112
6911,2111
6915,2122
6919,2137
6923,2138
6927,2145
6931,2149
6935,2162
6939,2177
6943,2161
6947,2147
6951,2128
6955,2101
6959,2062
6963,2027
6967,1985
6971,1957
6975,1920
6979,1888
6983,1873
6987,1865
6991,1847
6995,1840
6999,1830
7003,1835
7007,1836
7011,1825
7015,1833
7019,1842
7023,1844
7027,1840
7031,1840
7035,1842
7039,1844
7043,1842
7047,1850
7051,1859
7055,1870
7059,1855
7063,1855
7067,1856
7071,1863
7075,1857
7079,1859
7083,1872
7087,1882
7091,1883
7095,1872
7099,1879
7103,1869
7107,1853
7111,1798
7115,1863
7119,1893
7123,1889
7127,1887
7131,1891
7135,1919
7139,1889
7143,1892
7147,1890
7151,1899
7155,1863
7159,1889
7163,1890
7167,1899
7171,1911
7175,1903
7179,1891
7183,1901
7187,1910
7191,1915
7195,1905
7199,1909
7203,1917
7207,1911
7211,1906
7215,1913
7219,1920
7223,1922
7227,1917
7231,1910
7235,1918
7239,1929
7243,1915
7247,1912
7251,1926
7255,1938
7259,1936
7263,1936
7267,1936
7271,1938
7275,1936
7279,1933
7283,1933
7287,1940
7291,1947
7295,1938
7299,1943
7303,1950
7307,1946
7311,1936
7315,1941
7319,1951
7323,1956
7327,1950
7331,1954
7335,1962
7339,1962
7343,1956
7347,1952
7351,1962
7355,1967
7359,1962
7363,1961
7367,1965
7371,1965
7375,1965
7379,1958
7383,1963
7387,1968
7391,1968
7395,1968
7399,2000
7403,2031
7407,2038
7411,2032
7415,2036
7419,2058
7423,2055
7427,2024
7431,2013
7435,2011
7439,2000
7443,1983
7447,1966
7451,1967
7455,1973
7459,1972
7463,1968
7467,1975
7471,1980
7475,1979
7479,1968
7483,1977
7487,1984
7491,1977
7495,1966
7499,1968
7503,1982
7507,1983
7511,1973
7515,1965
7519,1895
7523,1797
7527,1776
7531,1986
7535,2486
7539,3199
7543,4095
7547,4095
7551,3801
7555,2986
7559,2374
7563,2059
7567,1984
7571,2000
7575,2006
7579,1991
7583,1972
7587,1951
7591,1926
7595,1904
7599,1903
7603,1914
7607,1913
7611,1907
7615,1913
7619,1922
7623,1925
7627,1916
7631,1918
7635,1926
7639,1935
7643,1936
7647,1938
7651,1951
7655,1955
7659,1946
7663,1953
7667,1966
7671,1971
7675,1968
7679,1959
7683,1974
7687,1983
7691,1991
7695,1998
7699,2011
7703,2029
7707,2025
7711,2021
7715,2029
7719,2037
7723,2058
7727,2064
7731,2068
7735,2089
7739,2102
7743,2100
7747,2108
7751,2127
7755,2135
7759,2141
7763,2151
7767,2160
7771,2171
7775,2174
7779,2169
7783,2183
7787,2195
7791,2198
7795,2186
7799,2177
7803,2160
7807,2129
7811,2091
7815,2047
7819,2019
7823,1982
7827,1936
7831,1910
7835,1899
7839,1888
7843,1862
7847,1851
7851,1850
7855,1853
7859,1841
7863,1840
7867,1843
7871,1841
7875,1837
7879,1846
7883,1855
7887,1855
7891,1854
7895,1855
7899,1866
7903,1867
7907,1872
7911,1873
7915,1882
7919,1882
7923,1887
7927,1885
7931,1884
7935,1883
7939,1891
7943,1887
7947,1902
7951,1905
7955,1904
7959,1902
7963,1899
7967,1903
7971,1903
7975,1897
7979,1893
7983,1900
7987,1898
7991,1893
7995,1893
7999,1900
8003,1904
8007,1899
8011,1888
8015,1913
8019,1905
8023,1894
8027,1903
8031,1891
8035,1883
8039,1904
8043,1899
8047,1898
8051,1936
8055,1906
8059,1904
8063,1900
8067,1904
8071,1906
8075,1907
8079,1901
8083,1903
8087,1917
8091,1917
8095,1907
8099,1905
8103,1914
8107,1920
8111,1915
8115,1919
8119,1925
8123,1920
8127,1915
8131,1929
8135,1930
8139,1935
8143,1920
8147,1917
8151,1927
8155,1924
8159,1920
8163,1919
8167,1935
8171,1939
8175,1936
8179,1937
8183,1940
8187,1949
8191,1946
8195,1927
8199,1937
8203,1947
8207,1936
8211,1934
8215,1937
8219,1952
8223,1953
8227,1937
8231,1940
8235,1963
8239,1973
8243,1990
8247,1999
8251,2003
8255,2013
8259,2010
8263,2006
8267,2002
8271,1997
8275,1976
8279,1959
8283,1955
8287,1949
8291,1941
8295,1936
8299,1940
8303,1950
8307,1951
8311,1943
8315,1947
8319,1957
8323,1956
8327,1950
8331,1947
8335,1957
8339,1951
8343,1942
8347,1953
8351,1947
8355,1908
8359,1810
8363,1745
8367,1846
8371,2204
8375,2752
8379,3499
8383,4095
8387,3907
8391,3158
8395,2519
8399,2125
8403,1969
8407,1953
8411,1962
8415,1968
8419,1963
8423,1934
8427,1906
8431,1898
8435,1901
8439,1891
8443,1877
8447,1890
8451,1895
8455,1895
8459,1891
8463,1888
8467,1904
8471,1904
8475,1904
8479,1902
8483,1915
8487,1916
8491,1915
8495,1921
8499,1926
8503,1929
8507,1925
8511,1922
8515,1941
8519,1953
8523,1959
8527,1953
8531,1954
8535,1974
8539,1982
8543,1981
8547,1989
8551,2006
8555,2011
8559,2017
8563,2030
8567,2043
8571,2063
8575,2069
8579,2075
8583,2106
8587,2122
8591,2122
8595,2123
8599,2141
8603,2157
8607,2160
8611,2158
8615,2166
8619,2176
8623,2183
8627,2179
8631,2176
8635,2176
8639,2159
8643,2119
8647,2077
8651,2045
8655,2006
8659,1964
8663,1931
8667,1905
8671,1889
8675,1857
8679,1840
8683,1840
8687,1839
8691,1827
8695,1824
8699,1835
8703,1840
8707,1836
8711,1827
8715,1833
8719,1839
8723,1831
8727,1831
8731,1838
8735,1847
8739,1850
8743,1842
8747,1847
8751,1860
8755,1856
8759,1857
8763,1856
8767,1869
8771,1868
8775,1869
8779,1865
8783,1873
8787,1885
8791,1872
8795,1869
8799,1874
8803,1888
8807,1875
8811,1866
8815,1873
8819,1889
8823,1887
8827,1869
8831,1873
8835,1878
8839,1878
8843,1877
8847,1889
8851,1896
8855,1886
8859,1878
8863,1883
8867,1898
8871,1903
8875,1900
8879,1896
8883,1904
8887,1898
8891,1893
8895,1886
8899,1901
8903,1907
8907,1903
8911,1894
8915,1902
8919,1904
8923,1905
8927,1899
8931,1900
8935,1915
8939,1917
8943,1915
8947,1915
8951,1922
8955,1916
8959,1903
8963,1903
8967,1914
8971,1928
8975,1927
8979,1921
8983,1927
8987,1930
8991,1927
8995,1919
8999,1925
9003,1931
9007,1929
9011,1922
9015,1921
9019,1929
9023,1926
9027,1921
9031,1927
9035,1943
9039,1950
9043,1934
9047,1935
9051,1937
9055,1941
9059,1939
9063,1942
9067,1954
9071,1982
9075,1937
9079,1936
9083,1959
9087,1946
9091,1953
9095,1939
9099,1964
9103,1959
9107,1953
9111,1947
9115,1951
9119,1963
9123,1962
9127,1952
9131,1954
9135,1978
9139,1995
9143,2010
9147,2020
9151,2022
9155,2023
9159,2015
9163,2015
9167,2018
9171,2002
9175,1991
9179,1982
9183,1973
9187,1968
9191,1963
9195,1961
9199,1968
9203,1968
9207,1962
9211,1953
9215,1954
9219,1962
9223,1968
9227,1962
9231,1968
9235,1968
9239,1963
9243,1953
9247,1949
9251,1910
9255,1817
9259,1745
9263,1863
9267,2265
9271,2864
9275,3673
9279,4095
9283,4078
9287,3273
9291,2603
9295,2160
9299,1997
9303,1979
9307,1979
9311,1964
9315,1945
9319,1931
9323,1909
9327,1887
9331,1881
9335,1884
9339,1880
9343,1876
9347,1879
9351,1893
9355,1889
9359,1882
9363,1889
9367,1901
9371,1904
9375,1894
9379,1904
9383,1910
9387,1919
9391,1914
9395,1917
9399,1933
9403,1933
9407,1935
9411,1937
9415,1945
9419,1950
9423,1952
9427,1949
9431,1965
9435,1983
9439,1995
9443,1983
9447,1987
9451,2005
9455,2014
9459,2022
9463,2032
9467,2045
9471,2060
9475,2070
9479,2080
9483,2102
9487,2118
9491,2121
9495,2128
9499,2145
9503,2160
9507,2160
9511,2161
9515,2177
9519,2192
9523,2190
9527,2177
9531,2177
9535,2165
9539,2134
9543,2096
9547,2062
9551,2031
9555,1984
9559,1939
9563,1909
9567,1890
9571,1872
9575,1850
9579,1837
9583,1835
9587,1827
9591,1817
9595,1814
9599,1819
9603,1821
9607,1815
9611,1824
9615,1832
9619,1837
9623,1839
9627,1823
9631,1835
9635,1842
9639,1838
9643,1831
9647,1835
9651,1852
9655,1843
9659,1833
9663,1843
9667,1851
9671,1850
9675,1854
9679,1854
9683,1865
9687,1869
9691,1857
9695,1859
9699,1871
9703,1872
9707,1867
9711,1867
9715,1872
9719,1882
9723,1874
9727,1871
9731,1879
9735,1890
9739,1885
9743,1884
9747,1887
9751,1895
9755,1891
9759,1887
9763,1876
9767,1890
9771,1891
9775,1888
9779,1891
9783,1897
9787,1891
9791,1887
9795,1889
9799,1901
9803,1901
9807,1893
9811,1889
9815,1898
9819,1903
9823,1904
9827,1898
9831,1904
9835,1909
9839,1907
9843,1892
9847,1904
9851,1917
9855,1911
9859,1904
9863,1911
9867,1927
9871,1923
9875,1915
9879,1914
9883,1919
9887,1927
9891,1925
9895,1927
9899,1935
9903,1941
9907,1931
9911,1927
9915,1934
9919,1936
9923,1936
9927,1930
9931,1936
9935,1938
9939,1937
9943,1931
9947,1935
9951,1937
9955,1935
9959,1926
9963,1939
9967,1893
9971,1937
9975,1935
9979,1952
9983,1939
9987,1950
9991,1945
9995,1952
9999,1920
10003,1919
10007,1946
10011,1946
10015,1956
10019,1967
10023,1952
10027,1947
10031,1950
10035,1965
10039,1967
10043,1954
10047,1963
10051,1967
10055,1965
10059,1952
10063,1955
10067,1966
10071,1968
10075,1966
10079,1968
10083,1974
10087,1975
10091,1968
10095,1981
10099,2007
10103,2031
10107,2020
10111,2032
10115,2054
10119,2044
10123,2031
10127,2011
10131,2003
10135,2001
10139,1977
10143,1957
10147,1962
10151,1966
10155,1965
10159,1958
10163,1964
10167,1970
10171,1964
10175,1951
10179,1957
10183,1968
10187,1969
10191,1967
10195,1968
10199,1975
10203,1967
10207,1904
10211,1802
10215,1730
10219,1840
10223,2255
10227,2893
10231,3847
10235,4095
10239,4095
10243,3923
10247,3035
10251,2397
10255,2079
10259,1974
10263,1966
10267,1965
10271,1935
10275,1909
10279,1888
10283,1878
10287,1872
10291,1855
10295,1855
10299,1857
10303,1868
10307,1862
10311,1861
10315,1872
10319,1872
10323,1872
10327,1872
10331,1871
10335,1882
10339,1884
10343,1875
10347,1891
10351,1895
10355,1899
10359,1897
10363,1907
10367,1913
10371,1915
10375,1917
10379,1919
10383,1927
10387,1931
10391,1927
10395,1937
10399,1954
10403,1959
10407,1957
10411,1968
10415,1987
10419,1999
10423,2000
10427,2006
10431,2032
10435,2043
10439,2047
10443,2064
10447,2094
10451,2116
10455,2127
10459,2128
10463,2140
10467,2159
10471,2163
10475,2163
10479,2170
10483,2177
10487,2172
10491,2163
10495,2141
10499,2116
10503,2087
10507,2039
10511,2006
10515,1979
10519,1957
10523,1917
10527,1884
10531,1871
10535,1872
10539,1863
10543,1854
10547,1855
10551,1851
10555,1849
10559,1839
10563,1843
10567,1851
10571,1856
10575,1856
10579,1851
10583,1859
10587,1867
10591,1858
10595,1855
10599,1859
10603,1863
10607,1858
10611,1856
10615,1869
10619,1866
10623,1863
10627,1867
10631,1883
10635,1881
10639,1871
10643,1865
10647,1870
10651,1883
10655,1885
10659,1882
10663,1887
10667,1888
10671,1894
10675,1887
10679,1890
10683,1894
10687,1894
10691,1882
10695,1883
10699,1891
10703,1897
10707,1891
10711,1885
10715,1894
10719,1902
10723,1895
10727,1902
10731,1905
10735,1904
10739,1904
10743,1901
10747,1907
10751,1913
10755,1917
10759,1909
10763,1921
10767,1923
10771,1921
10775,1918
10779,1917
10783,1926
10787,1921
10791,1922
10795,1924
10799,1934
10803,1935
10807,1927
10811,1920
10815,1929
10819,1935
10823,1932
10827,1930
10831,1935
10835,1936
10839,1933
10843,1922
10847,1936
10851,1941
10855,1936
10859,1934
10863,1936
10867,1953
10871,1955
10875,1941
10879,1936
10883,1951
10887,1939
10891,1951
10895,1943
10899,1953
10903,1943
10907,1964
10911,1939
10915,1952
10919,1962
10923,1947
10927,1953
10931,1951
10935,1953
10939,1951
10943,1943
10947,1952
10951,1962
10955,1962
10959,1957
10963,1967
10967,1968
10971,1963
10975,1955
10979,1962
10983,1971
10987,1975
10991,1967
10995,1966
10999,1974
11003,1975
11007,1968
11011,1959
11015,1967
11019,1970
11023,1968
11027,1965
11031,1974
11035,1978
11039,1974
11043,1981
11047,2001
11051,2033
11055,2034
11059,2032
11063,2053
11067,2060
11071,2058
11075,2030
11079,2013
11083,2013
11087,2003
11091,1978
11095,1973
11099,1978
11103,1981
11107,1975
11111,1973
11115,1988
11119,1982
11123,1976
11127,1970
11131,1984
11135,1990
11139,1981
11143,1979
11147,1969
11151,1978
11155,1954
11159,1872
11163,1790
11167,1788
11171,1989
11175,2455
11179,3120
11183,4053
11187,4095
11191,3760
11195,3006
11199,2425
11203,2107
11207,1994
11211,1987
11215,1988
11219,1979
11223,1950
11227,1929
11231,1920
11235,1904
11239,1889
11243,1881
11247,1888
11251,1902
11255,1893
11259,1896
11263,1905
11267,1906
11271,1902
11275,1895
11279,1905
11283,1918
11287,1927
11291,1913
11295,1920
11299,1923
11303,1925
11307,1925
11311,1931
11315,1949
11319,1958
11323,1950
11327,1949
11331,1963
11335,1968
11339,1965
11343,1968
11347,1984
11351,2000
11355,2003
11359,2001
11363,2011
11367,2031
11371,2039
11375,2047
11379,2066
11383,2083
11387,2096
11391,2099
11395,2112
11399,2129
11403,2144
11407,2145
11411,2148
11415,2157
11419,2157
11423,2160
11427,2172
11431,2192
11435,2190
11439,2167
11443,2153
11447,2134
11451,2112
11455,2071
11459,2027
11463,1996
11467,1970
11471,1939
11475,1904
11479,1885
11483,1873
11487,1872
11491,1856
11495,1859
11499,1862
11503,1859
11507,1851
11511,1854
11515,1861
11519,1856
11523,1849
11527,1840
11531,1846
11535,1847
11539,1855
11543,1856
11547,1873
11551,1875
11555,1872
11559,1872
11563,1885
11567,1889
11571,1879
11575,1861
11579,1873
11583,1890
11587,1904
11591,1890
11595,1889
11599,1904
11603,1904
11607,1898
11611,1899
11615,1905
11619,1904
11623,1891
11627,1895
11631,1903
11635,1904
11639,1898
11643,1892
11647,1904
11651,1905
11655,1899
11659,1893
11663,1903
11667,1906
11671,1903
11675,1903
11679,1910
11683,1925
11687,1919
11691,1904
11695,1907
11699,1918
11703,1923
11707,1917
11711,1915
11715,1922
11719,1929
11723,1917
11727,1919
11731,1921
11735,1931
11739,1921
11743,1921
11747,1935
11751,1947
11755,1934
11759,1923
11763,1926
11767,1936
11771,1936
11775,1924
11779,1929
11783,1931
11787,1932
11791,1931
11795,1951
11799,1937
11803,1936
11807,1940
11811,1936
11815,1947
11819,1946
11823,1910
11827,1949
11831,1961
11835,1968
11839,1969
11843,1966
11847,1962
11851,1965
11855,1961
11859,1957
11863,1962
11867,1971
11871,1961
11875,1954
11879,1961
11883,1963
11887,1965
11891,1955
11895,1969
11899,1972
11903,1968
11907,1966
11911,1968
11915,1979
11919,1989
11923,1968
11927,1962
11931,1968
11935,1973
11939,1967
11943,1959
11947,1969
11951,1968
11955,1968
11959,1968
11963,1983
11967,1984
11971,1984
11975,1974
11979,1984
11983,2006
11987,2023
11991,2029
11995,2031
11999,2036
12003,2045
12007,2032
12011,2032
12015,2029
12019,2011
12023,1990
12027,1975
12031,1975
12035,1972
12039,1967
12043,1967
12047,1967
12051,1970
12055,1963
12059,1959
12063,1968
12067,1973
12071,1969
12075,1968
12079,1979
12083,1979
12087,1974
12091,1955
12095,1901
12099,1831
12103,1818
12107,1993
12111,2390
12115,2963
12119,3649
12123,3809
12127,3307
12131,2746
12135,2274
12139,2025
12143,1959
12147,1972
12151,1985
12155,1981
12159,1955
12163,1942
12167,1934
12171,1917
12175,1915
12179,1917
12183,1927
12187,1917
12191,1907
12195,1904
12199,1924
12203,1927
12207,1919
12211,1920
12215,1936
12219,1941
12223,1933
12227,1932
12231,1942
12235,1945
12239,1941
12243,1949
12247,1962
12251,1971
12255,1967
12259,1967
12263,1974
12267,1983
12271,1985
12275,1984
12279,2000
12283,2011
12287,2015
12291,2013
12295,2025
12299,2037
12303,2045
12307,2053
12311,2064
12315,2086
12319,2096
12323,2094
12327,2096
12331,2111
12335,2124
12339,2125
12343,2128
12347,2142
12351,2151
12355,2153
12359,2157
12363,2160
12367,2163
12371,2165
12375,2158
12379,2145
12383,2123
12387,2087
12391,2046
12395,2010
12399,1984
12403,1947
12407,1905
12411,1889
12415,1879
12419,1871
12423,1858
12427,1842
12431,1843
12435,1837
12439,1830
12443,1829
12447,1837
12451,1840
12455,1841
12459,1840
12463,1845
12467,1847
12471,1845
12475,1847
12479,1854
12483,1863
12487,1865
12491,1863
12495,1872
12499,1875
12503,1873
12507,1866
12511,1874
12515,1873
12519,1881
12523,1873
12527,1872
12531,1878
12535,1881
12539,1872
12543,1875
12547,1887
12551,1886
12555,1885
12559,1885
12563,1891
12567,1895
12571,1889
12575,1876
12579,1883
12583,1890
12587,1884
12591,1876
12595,1884
12599,1894
12603,1892
12607,1878
12611,1888
12615,1891
12619,1894
12623,1879
12627,1890
12631,1898
12635,1903
12639,1888
12643,1887
12647,1898
12651,1901
12655,1890
12659,1889
12663,1902
12667,1904
12671,1904
12675,1903
12679,1910
12683,1918
12687,1913
12691,1903
12695,1905
12699,1915
12703,1913
12707,1921
12711,1919
12715,1948
12719,1920
12723,1904
12727,1918
12731,1920
12735,1904
12739,1917
12743,1918
12747,1927
12751,1914
12755,1905
12759,1883
12763,1917
12767,1931
12771,1920
12775,1917
12779,1922
12783,1931
12787,1922
12791,1923
12795,1935
12799,1943
12803,1936
12807,1927
12811,1933
12815,1938
12819,1938
12823,1934
12827,1936
12831,1936
12835,1938
12839,1936
12843,1942
12847,1951
12851,1943
12855,1939
12859,1943
12863,1957
12867,1965
12871,1954
12875,1949
12879,1947
12883,1956
12887,1961
12891,1963
12895,1963
12899,1963
12903,1968
12907,1983
12911,2015
12915,2032
12919,2027
12923,2019
12927,2019
12931,2022
12935,2021
12939,1999
12943,1988
12947,1984
12951,1970
12955,1947
12959,1945
12963,1959
12967,1961
12971,1965
12975,1959
12979,1969
12983,1969
12987,1969
12991,1958
12995,1965
12999,1968
13003,1965
13007,1967
13011,1959
13015,1919
13019,1826
13023,1747
13027,1843
13031,2232
13035,2831
13039,3641
13043,4095
13047,4095
13051,3562
13055,2810
13059,2286
13063,2051
13067,1984
13071,1969
13075,1958
13079,1947
13083,1936
13087,1915
13091,1886
13095,1876
13099,1873
13103,1872
13107,1867
13111,1872
13115,1878
13119,1877
13123,1880
13127,1889
13131,1890
13135,1891
13139,1890
13143,1888
13147,1898
13151,1904
13155,1904
13159,1901
13163,1904
13167,1920
13171,1918
13175,1910
13179,1918
13183,1922
13187,1930
13191,1936
13195,1941
13199,1953
13203,1955
13207,1954
13211,1963
13215,1972
13219,1982
13223,1989
13227,2003
13231,2025
13235,2036
13239,2046
13243,2071
13247,2085
13251,2096
13255,2093
13259,2103
13263,2122
13267,2131
13271,2135
13275,2141
13279,2158
13283,2165
13287,2170
13291,2162
13295,2169
13299,2171
13303,2154
13307,2115
13311,2096
13315,2064
13319,2019
13323,1970
13327,1947
13331,1929
13335,1906
13339,1885
13343,1872
13347,1872
13351,1863
13355,1856
13359,1851
13363,1853
13367,1858
13371,1854
13375,1846
13379,1854
13383,1857
13387,1858
13391,1855
13395,1862
13399,1868
13403,1861
13407,1856
13411,1872
13415,1875
13419,1871
13423,1869
13427,1871
13431,1882
13435,1882
13439,1872
13443,1869
13447,1877
13451,1885
13455,1885
13459,1886
13463,1899
13467,1899
13471,1893
13475,1889
13479,1899
13483,1904
13487,1896
13491,1892
13495,1901
13499,1904
13503,1902
13507,1892
13511,1898
13515,1902
13519,1901
13523,1894
13527,1904
13531,1911
13535,1909
13539,1904
13543,1904
13547,1907
13551,1911
13555,1904
13559,1905
13563,1920
13567,1919
13571,1908
13575,1904
13579,1915
13583,1920
13587,1920
13591,1919
13595,1919
13599,1928
13603,1920
13607,1914
13611,1917
13615,1927
13619,1930
13623,1922
13627,1926
13631,1936
13635,1936
13639,1929
13643,1927
13647,1937
13651,1934
13655,1920
13659,1930
13663,1935
13667,1936
13671,1936
13675,1924
13679,1922
13683,1936
13687,1931
13691,1931
13695,1938
13699,1940
13703,1936
13707,1931
13711,1937
13715,1941
13719,1936
13723,1934
13727,1939
13731,1966
13735,1955
13739,1948
13743,1941
13747,1951
13751,1955
13755,1958
13759,1947
13763,1955
13767,1954
13771,1954
13775,1955
13779,1964
13783,1963
13787,1964
13791,1950
13795,1962
13799,1963
13803,1970
13807,1961
13811,1968
13815,1969
13819,1968
13823,1979
13827,2015
13831,2032
13835,2032
13839,2030
13843,2032
13847,2037
13851,2031
13855,2011
13859,2000
13863,2000
13867,1982
13871,1957
13875,1953
13879,1961
13883,1964
13887,1958
13891,1951
13895,1965
13899,1962
13903,1956
13907,1961
13911,1963
13915,1973
13919,1965
13923,1962
13927,1958
13931,1927
13935,1831
13939,1740
13943,1795
13947,2141
13951,2739
13955,3578
13959,4095
13963,4095
13967,3972
13971,3063
13975,2405
13979,2071
13983,1979
13987,1961
13991,1952
13995,1930
13999,1916
14003,1890
14007,1867
14011,1866
14015,1859
14019,1860
14023,1849
14027,1856
14031,1866
14035,1867
14039,1863
14043,1870
14047,1882
14051,1877
14055,1875
14059,1879
14063,1893
14067,1889
14071,1889
14075,1890
14079,1904
14083,1907
14087,1904
14091,1909
14095,1919
14099,1929
14103,1926
14107,1925
14111,1939
14115,1958
14119,1955
14123,1955
14127,1967
14131,1978
14135,1986
14139,1987
14143,2000
14147,2020
14151,2033
14155,2042
14159,2064
14163,2071
14167,2091
14171,2096
14175,2112
14179,2131
14183,2147
14187,2153
14191,2157
14195,2166
14199,2176
14203,2174
14207,2175
14211,2177
14215,2175
14219,2157
14223,2123
14227,2096
14231,2063
14235,2017
14239,1983
14243,1955
14247,1925
14251,1905
14255,1876
14259,1867
14263,1867
14267,1855
14271,1845
14275,1840
14279,1847
14283,1850
14287,1847
14291,1846
14295,1854
14299,1851
14303,1851
14307,1845
14311,1855
14315,1856
14319,1850
14323,1841
14327,1857
14331,1870
14335,1872
14339,1861
14343,1861
14347,1866
14351,1872
14355,1860
14359,1861
14363,1871
14367,1873
14371,1871
14375,1866
14379,1878
14383,1878
14387,1872
14391,1867
14395,1875
14399,1874
14403,1872
14407,1869
14411,1873
14415,1883
14419,1887
14423,1878
14427,1885
14431,1890
14435,1889
14439,1883
14443,1887
14447,1893
14451,1895
14455,1886
14459,1889
14463,1903
14467,1905
14471,1904
14475,1898
14479,1904
14483,1904
14487,1904
14491,1901
14495,1904
14499,1901
14503,1904
14507,1902
14511,1902
14515,1909
14519,1910
14523,1903
14527,1904
14531,1915
14535,1915
14539,1909
14543,1917
14547,1921
14551,1921
14555,1918
14559,1915
14563,1933
14567,1935
14571,1917
14575,1923
14579,1911
14583,1915
14587,1927
14591,1926
14595,1927
14599,1989
14603,1939
14607,1932
14611,1937
14615,1940
14619,1936
14623,1926
14627,1936
14631,1939
14635,1947
14639,1939
14643,1941
14647,1947
14651,1947
14655,1943
14659,1947
14663,1958
14667,1954
14671,1937
14675,1943
14679,1952
14683,1963
14687,1955
14691,1961
14695,1961
14699,1959
14703,1945
14707,1952
14711,1979
14715,2013
14719,2014
14723,2019
14727,2022
14731,2033
14735,2031
14739,2018
14743,2007
14747,2000
14751,1992
14755,1969
14759,1957
14763,1956
14767,1965
14771,1955
14775,1957
14779,1965
14783,1968
14787,1962
14791,1959
14795,1961
14799,1966
14803,1958
14807,1956
14811,1961
14815,1958
14819,1903
14823,1796
14827,1731
14831,1859
14835,2308
14839,2992
14843,4091
14847,4095
14851,4095
14855,3878
14859,2956
14863,2333
14867,2037
14871,1953
14875,1952
14879,1951
14883,1935
14887,1904
14891,1873
14895,1859
14899,1858
14903,1850
14907,1840
14911,1842
14915,1851
14919,1854
14923,1854
14927,1859
14931,1865
14935,1863
14939,1861
14943,1866
14947,1879
14951,1879
14955,1874
14959,1883
14963,1898
14967,1901
14971,1888
14975,1892
14979,1904
14983,1915
14987,1917
14991,1920
14995,1929
14999,1937
15003,1933
15007,1936
15011,1958
15015,1968
15019,1968
15023,1973
15027,1987
15031,1997
15035,2012
15039,2019
15043,2038
15047,2060
15051,2074
15055,2079
15059,2090
15063,2115
15067,2126
15071,2129
15075,2137
15079,2148
15083,2159
15087,2160
15091,2162
15095,2173
15099,2171
15103,2147
15107,2117
15111,2096
15115,2067
15119,2030
15123,1984
15127,1957
15131,1924
15135,1900
15139,1871
15143,1858
15147,1859
15151,1846
15155,1835
15159,1822
15163,1829
15167,1835
15171,1825
15175,1827
15179,1837
15183,1840
15187,1838
15191,1829
15195,1841
15199,1845
15203,1841
15207,1839
15211,1845
15215,1854
15219,1851
15223,1847
15227,1855
15231,1863
15235,1865
15239,1862
15243,1872
15247,1872
15251,1872
15255,1862
15259,1868
15263,1875
15267,1878
15271,1874
15275,1875
15279,1877
15283,1883
15287,1877
15291,1872
15295,1890
15299,1899
15303,1889
15307,1883
15311,1891
15315,1895
15319,1894
15323,1883
15327,1887
15331,1902
15335,1895
15339,1889
15343,1893
15347,1904
15351,1903
15355,1894
15359,1898
15363,1904
15367,1901
15371,1895
15375,1901
15379,1912
15383,1904
15387,1904
15391,1901
15395,1910
15399,1917
15403,1910
15407,1907
15411,1919
15415,1921
15419,1913
15423,1910
15427,1917
15431,1921
15435,1915
15439,1907
15443,1918
15447,1920
15451,1926
15455,1919
15459,1918
15463,1919
15467,1908
15471,1961
15475,1920
15479,1926
15483,1932
15487,1926
15491,1934
15495,1936
15499,1936
15503,1931
15507,1927
15511,1918
15515,1941
15519,1936
15523,1927
15527,1936
15531,1946
15535,1941
15539,1936
15543,1940
15547,1938
15551,1947
15555,1948
15559,1951
15563,1964
15567,1962
15571,1959
15575,1980
15579,2001
15583,2014
15587,2015
15591,2009
15595,2026
15599,2032
15603,2018
15607,1998
15611,1991
15615,1985
15619,1968
15623,1936
15627,1947
15631,1959
15635,1950
15639,1947
15643,1952
15647,1955
15651,1952
15655,1941
15659,1938
15663,1951
15667,1954
15671,1947
15675,1954
15679,1959
15683,1933
15687,1838
15691,1758
15695,1815
15699,2134
15703,2702
15707,3502
15711,4095
15715,4095
15719,3593
15723,2799
15727,2256
15731,2020
15735,1967
15739,1959
15743,1969
15747,1954
15751,1930
15755,1903
15759,1904
15763,1901
15767,1887
15771,1872
15775,1872
15779,1875
15783,1885
15787,1886
15791,1886
15795,1895
15799,1902
15803,1904
15807,1898
15811,1906
15815,1917
15819,1916
15823,1907
15827,1920
15831,1931
15835,1929
15839,1927
15843,1936
15847,1951
15851,1955
15855,1955
15859,1969
15863,1981
15867,1984
15871,1980
15875,1989
15879,2011
15883,2015
15887,2020
15891,2031
15895,2045
15899,2060
15903,2059
15907,2065
15911,2086
15915,2111
15919,2113
15923,2123
15927,2139
15931,2148
15935,2149
15939,2153
15943,2163
15947,2173
15951,2174
15955,2173
15959,2176
15963,2182
15967,2174
15971,2136
15975,2112
15979,2085
15983,2041
15987,2000
15991,1961
15995,1936
15999,1911
16003,1883
16007,1861
16011,1850
16015,1851
16019,1841
16023,1830
16027,1826
16031,1833
16035,1829
16039,1827
16043,1840
16047,1840
16051,1831
16055,1825
16059,1840
16063,1852
16067,1854
16071,1845
16075,1847
16079,1858
16083,1869
16087,1863
16091,1863
16095,1870
16099,1873
16103,1872
16107,1872
16111,1878
16115,1884
16119,1873
16123,1872
16127,1883
16131,1891
16135,1887
16139,1873
16143,1880
16147,1882
16151,1876
16155,1872
16159,1887
16163,1895
16167,1891
16171,1883
16175,1875
16179,1886
16183,1895
16187,1893
16191,1889
16195,1897
16199,1896
16203,1883
16207,1888
16211,1892
16215,1899
16219,1893
16223,1887
16227,1891
16231,1897
16235,1899
16239,1900
16243,1902
16247,1907
16251,1908
16255,1910
16259,1910
16263,1911
16267,1913
16271,1905
16275,1917
16279,1921
16283,1913
16287,1906
16291,1909
16295,1917
16299,1915
16303,1913
16307,1905
16311,1917
16315,1919
16319,1914
16323,1919
16327,1921
16331,1923
16335,1922
16339,1922
16343,1927
16347,1931
16351,1931
16355,1921
16359,1934
16363,1936
16367,1930
16371,1926
16375,1927
16379,1915
16383,1940
16387,1950
16391,1934
16395,1947
16399,1962
16403,1970
16407,1983
16411,1997
16415,2004
16419,1995
16423,2013
16427,2012
16431,2002
16435,1977
16439,1967
16443,1966
16447,1955
16451,1947
16455,1930
16459,1935
16463,1947
16467,1943
16471,1939
16475,1938
16479,1943
16483,1938
16487,1935
16491,1926
16495,1947
16499,1955
16503,1955
16507,1939
16511,1921
16515,1862
16519,1790
16523,1793
16527,2000
16531,2420
16535,2992
16539,3650
16543,3743
16547,3207
16551,2624
16555,2161
16559,1966
16563,1936
16567,1952
16571,1958
16575,1951
16579,1951
16583,1932
16587,1907
16591,1899
16595,1902
16599,1903
16603,1897
16607,1891
16611,1899
16615,1910
16619,1913
16623,1920
16627,1918
16631,1931
16635,1923
16639,1919
16643,1921
16647,1935
16651,1936
16655,1937
16659,1947
16663,1953
16667,1962
16671,1957
16675,1965
16679,1975
16683,1976
16687,1977
16691,1994
16695,2007
16699,2019
16703,2017
16707,2015
16711,2025
16715,2045
16719,2078
16723,2064
16727,2069
16731,2085
16735,2095
16739,2096
16743,2113
16747,2131
16751,2139
16755,2139
16759,2145
16763,2160
16767,2162
16771,2161
16775,2174
16779,2177
16783,2181
16787,2178
16791,2171
16795,2158
16799,2138
16803,2112
16807,2078
16811,2036
16815,1995
16819,1958
16823,1927
16827,1908
16831,1890
16835,1873
16839,1854
16843,1850
16847,1859
16851,1852
16855,1841
16859,1845
16863,1851
16867,1841
16871,1840
16875,1843
16879,1846
16883,1849
16887,1847
16891,1849
16895,1858
16899,1856
16903,1859
16907,1863
16911,1863
16915,1873
16919,1869
16923,1870
16927,1886
16931,1889
16935,1881
16939,1877
16943,1891
16947,1904
16951,1902
16955,1891
16959,1886
16963,1893
16967,1886
16971,1883
16975,1891
16979,1904
16983,1899
16987,1887
16991,1887
16995,1898
16999,1895
17003,1889
17007,1888
17011,1891
17015,1895
17019,1893
17023,1893
17027,1895
17031,1903
17035,1894
17039,1889
17043,1891
17047,1899
17051,1897
17055,1886
17059,1897
17063,1904
17067,1904
17071,1904
17075,1916
17079,1917
17083,1915
17087,1904
17091,1904
17095,1914
17099,1915
17103,1907
17107,1904
17111,1906
17115,1914
17119,1919
17123,1914
17127,1919
17131,1923
17135,1925
17139,1921
17143,1927
17147,1933
17151,1923
17155,1926
17159,1936
17163,1939
17167,1933
17171,1932
17175,1942
17179,1970
17183,1985
17187,1981
17191,1985
17195,1995
17199,1998
17203,1987
17207,1980
17211,1982
17215,1968
17219,1949
17223,1931
17227,1929
17231,1930
17235,1926
17239,1919
17243,1935
17247,1936
17251,1932
17255,1930
17259,1933
17263,1945
17267,1939
17271,1934
17275,1936
17279,1948
17283,1942
17287,1904
17291,1840
17295,1777
17299,1801
17303,2047
17307,2529
17311,3171
17315,3847
17319,3895
17323,3266
17327,2661
17331,2210
17335,1998
17339,1968
17343,1949
17347,1964
17351,1945
17355,1921
17359,1904
17363,1904
17367,1891
17371,1879
17375,1877
17379,1891
17383,1887
17387,1876
17391,1873
17395,1891
17399,1888
17403,1892
17407,1895
17411,1908
17415,1906
17419,1904
17423,1919
17427,1931
17431,1935
17435,1930
17439,1921
17443,1936
17447,1946
17451,1947
17455,1949
17459,1957
17463,1963
17467,1957
17471,1970
17475,1984
17479,1999
17483,1998
17487,2000
17491,2007
17495,2030
17499,2041
17503,2047
17507,2064
17511,2082
17515,2091
17519,2096
17523,2114
17527,2135
17531,2151
17535,2151
17539,2147
17543,2160
17547,2167
17551,2176
17555,2181
17559,2191
17563,2195
17567,2178
17571,2155
17575,2131
17579,2107
17583,2066
17587,2015
17591,1974
17595,1952
17599,1921
17603,1889
17607,1875
17611,1872
17615,1861
17619,1851
17623,1845
17627,1847
17631,1846
17635,1843
17639,1839
17643,1842
17647,1852
17651,1846
17655,1851
17659,1850
17663,1856
17667,1856
17671,1847
17675,1851
17679,1871
17683,1872
17687,1869
17691,1878
17695,1883
17699,1879
17703,1870
17707,1872
17711,1877
17715,1872
17719,1871
17723,1874
17727,1879
17731,1888
17735,1877
17739,1879
17743,1891
17747,1901
17751,1894
17755,1884
17759,1889
17763,1904
17767,1897
17771,1897
17775,1892
17779,1904
17783,1902
17787,1893
17791,1890
17795,1902
17799,1904
17803,1904
17807,1904
17811,1905
17815,1904
17819,1895
17823,1895
17827,1907
17831,1909
17835,1903
17839,1902
17843,1906
17847,1913
17851,1911
17855,1904
17859,1909
17863,1917
17867,1909
17871,1904
17875,1913
17879,1926
17883,1918
17887,1910
17891,1917
17895,1923
17899,1922
17903,1919
17907,1913
17911,1922
17915,1927
17919,1916
17923,1919
17927,1937
17931,1937
17935,1929
17939,1920
17943,1931
17947,1938
17951,1934
17955,1927
17959,1934
17963,1942
17967,1936
17971,1937
17975,1939
17979,1949
17983,1941
17987,1943
17991,1970
17995,1997
17999,1999
18003,1999
18007,2006
18011,2019
18015,2016
18019,1998
18023,1984
18027,1979
18031,1968
18035,1953
18039,1939
18043,1943
18047,1954
18051,1951
18055,1943
18059,1945
18063,1952
18067,1952
18071,1942
18075,1950
18079,1955
18083,1950
18087,1949
18091,1954
18095,1951
18099,1934
18103,1856
18107,1755
18111,1742
18115,1967
18119,2483
18123,3207
18127,4095
18131,4095
18135,4095
18139,3376
18143,2646
18147,2185
18151,1995
18155,1950
18159,1947
18163,1941
18167,1911
18171,1887
18175,1872
18179,1863
18183,1856
18187,1847
18191,1843
18195,1853
18199,1846
18203,1840
18207,1834
18211,1857
18215,1866
18219,1863
18223,1867
18227,1886
18231,1879
18235,1877
18239,1877
18243,1907
18247,1904
18251,1897
18255,1911
18259,1943
18263,1917
18267,1915
18271,1908
18275,1920
18279,1935
18283,1938
18287,1934
18291,1949
18295,1965
18299,1968
18303,1968
18307,1975
18311,1990
18315,2000
18319,2003
18323,2011
18327,2032
18331,2062
18335,2066
18339,2082
18343,2094
18347,2101
18351,2109
18355,2112
18359,2125
18363,2134
18367,2139
18371,2139
18375,2144
18379,2142
18383,2133
18387,2109
18391,2091
18395,2063
18399,2022
18403,1984
18407,1954
18411,1933
18415,1902
18419,1872
18423,1857
18427,1850
18431,1845
18435,1839
18439,1835
18443,1839
18447,1840
18451,1834
18455,1835
18459,1840
18463,1841
18467,1843
18471,1841
18475,1853
18479,1853
18483,1850
18487,1846
18491,1847
18495,1856
18499,1857
18503,1857
18507,1859
18511,1867
18515,1865
18519,1856
18523,1860
18527,1871
18531,1872
18535,1865
18539,1857
18543,1869
18547,1872
18551,1872
18555,1871
18559,1873
18563,1877
18567,1882
18571,1875
18575,1878
18579,1888
18583,1889
18587,1883
18591,1887
18595,1899
18599,1897
18603,1885
18607,1887
18611,1898
18615,1895
18619,1897
18623,1897
18627,1898
18631,1899
18635,1897
18639,1890
18643,1903
18647,1903
18651,1893
18655,1895
18659,1899
18663,1906
18667,1905
18671,1904
18675,1908
18679,1913
18683,1919
18687,1909
18691,1915
18695,1920
18699,1914
18703,1911
18707,1916
18711,1920
18715,1925
18719,1918
18723,1920
18727,1931
18731,1937
18735,1926
18739,1926
18743,1933
18747,1937
18751,1934
18755,1927
18759,1929
18763,1938
18767,1937
18771,1930
18775,1939
18779,1942
18783,1937
18787,1931
18791,1936
18795,1948
18799,1941
18803,1931
18807,1935
18811,1939
18815,1939
18819,1936
18823,1937
18827,1942
18831,1947
18835,1934
18839,1936
18843,1946
18847,1955
18851,1947
18855,1941
18859,1952
18863,1962
18867,1961
18871,1947
18875,1947
18879,1957
18883,1973
18887,2003
18891,2021
18895,2031
18899,2030
18903,2026
18907,2021
18911,2022
18915,2016
18919,1998
18923,1983
18927,1975
18931,1965
18935,1947
18939,1950
18943,1959
18947,1963
18951,1965
18955,1967
18959,1968
18963,1973
18967,1966
18971,1952
18975,1962
18979,1968
18983,1969
18987,1963
18991,1951
18995,1906
18999,1801
19003,1712
19007,1808
19011,2259
19015,2974
19019,4095
19023,4095
19027,4095
19031,4095
19035,3364
19039,2553
19043,2111
19047,1962
19051,1937
19055,1926
19059,1913
19063,1898
19067,1866
19071,1849
19075,1840
19079,1839
19083,1833
19087,1823
19091,1838
19095,1840
19099,1840
19103,1835
19107,1842
19111,1851
19115,1857
19119,1850
19123,1850
19127,1856
19131,1871
19135,1863
19139,1831
19143,1876
19147,1885
19151,1882
19155,1877
19159,1901
19163,1907
19167,1913
19171,1891
19175,1920
19179,1926
19183,1935
19187,1931
19191,1941
19195,1959
19199,1965
19203,1968
19207,1978
19211,1995
19215,2013
19219,2015
19223,2034
19227,2061
19231,2079
19235,2086
19239,2095
19243,2114
19247,2127
19251,2131
19255,2138
19259,2160
19263,2170
19267,2165
19271,2171
19275,2174
19279,2166
19283,2149
19287,2112
19291,2085
19295,2059
19299,2012
19303,1968
19307,1931
19311,1904
19315,1883
19319,1869
19323,1852
19327,1845
19331,1842
19335,1840
19339,1827
19343,1835
19347,1841
19351,1836
19355,1828
19359,1835
19363,1850
19367,1845
19371,1843
19375,1853
19379,1849
19383,1853
19387,1845
19391,1849
19395,1856
19399,1856
19403,1854
19407,1858
19411,1869
19415,1867
19419,1866
19423,1871
19427,1869
19431,1871
19435,1866
19439,1867
19443,1877
19447,1882
19451,1882
19455,1874
19459,1877
19463,1878
19467,1877
19471,1872
19475,1878
19479,1890
19483,1882
19487,1882
19491,1887
19495,1890
19499,1893
19503,1891
19507,1887
19511,1894
19515,1895
19519,1888
19523,1889
19527,1899
19531,1902
19535,1900
19539,1902
19543,1909
19547,1917
19551,1905
19555,1903
19559,1910
19563,1921
19567,1914
19571,1911
19575,1914
19579,1925
19583,1908
19587,1904
19591,1911
19595,1923
19599,1921
19603,1910
19607,1915
19611,1922
19615,1925
19619,1909
19623,1914
19627,1925
19631,1921
19635,1918
19639,1914
19643,1921
19647,1930
19651,1923
19655,1926
19659,1936
19663,1936
19667,1935
19671,1933
19675,1927
19679,1935
19683,1936
19687,1934
19691,1937
19695,1943
19699,1939
19703,1936
19707,1945
19711,1945
19715,1947
19719,1940
19723,1942
19727,1950
19731,1952
19735,1949
19739,1958
19743,1961
19747,1953
19751,1949
19755,1943
19759,1959
19763,1964
19767,1958
19771,1955
19775,1961
19779,1963
19783,1955
19787,1955
19791,1995
19795,2021
19799,2032
19803,2029
19807,2034
19811,2039
19815,2032
19819,2013
19823,2001
19827,2000
19831,1991
19835,1969
19839,1958
19843,1962
19847,1969
19851,1956
19855,1952
19859,1958
19863,1968
19867,1963
19871,1961
19875,1962
19879,1965
19883,1958
19887,1951
19891,1959
19895,1966
19899,1951
19903,1865
19907,1747
19911,1702
19915,1904
19919,2467
19923,3330
19927,4095
19931,4095
19935,4095
19939,4095
19943,3189
19947,2434
19951,2043
19955,1927
19959,1933
19963,1936
19967,1916
19971,1875
19975,1867
19979,1854
19983,1835
19987,1821
19991,1819
19995,1825
