Timestamp,ECG Data
4,1682
7,1663
11,1675
15,1710
19,1712
23,1715
27,1712
31,1719
35,1729
39,1714
43,1728
47,1731
51,1746
55,1739
59,1746
63,1771
67,1782
71,1761
75,1734
79,1742
83,1757
87,1769
91,1808
95,1830
99,1833
103,1811
107,1817
111,1830
115,1845
119,1869
123,1870
127,1882
131,1879
135,1877
139,1877
143,1906
147,1931
151,1935
155,1947
159,1961
163,1984
167,1985
171,2000
175,2013
179,2033
183,2034
187,2053
191,2060
195,2083
199,2101
203,2106
207,2107
211,2123
215,2132
219,2127
223,2115
227,2108
231,2079
235,2044
239,2000
243,1970
247,1936
251,1892
255,1851
259,1813
263,1798
267,1779
271,1766
275,1757
279,1762
283,1755
287,1735
291,1734
295,1743
299,1750
303,1734
307,1744
311,1745
315,1747
319,1755
323,1747
327,1755
331,1774
335,1770
339,1766
343,1783
347,1795
351,1792
355,1781
359,1781
363,1781
367,1791
371,1794
375,1794
379,1802
383,1815
387,1799
391,1793
395,1809
399,1821
403,1806
407,1799
411,1809
415,1815
419,1803
423,1807
427,1813
431,1830
435,1815
439,1808
443,1809
447,1823
451,1821
455,1814
459,1814
463,1836
467,1819
471,1811
475,1816
479,1837
483,1840
487,1839
491,1837
495,1843
499,1856
503,1854
507,1853
511,1857
515,1858
519,1870
523,1861
527,1869
531,1874
535,1873
539,1869
543,1872
547,1872
551,1883
555,1881
559,1884
563,1891
567,1898
571,1887
575,1893
579,1903
583,1895
587,1890
591,1898
595,1899
599,1904
603,1906
607,1901
611,1907
615,1911
619,1904
623,1905
627,1907
631,1920
635,1921
639,1915
643,1920
647,1936
651,1934
655,1934
659,1939
663,1949
667,1950
671,1938
675,1942
679,1949
683,1959
687,1949
691,1949
695,1953
699,1974
703,1987
707,2009
711,2039
715,2054
719,2061
723,2062
727,2064
731,2057
735,2043
739,2020
743,2011
747,2002
751,1985
755,1983
759,1987
763,2000
767,1997
771,1991
775,2000
779,1999
783,2000
787,1994
791,1989
795,2001
799,2013
803,2011
807,2003
811,1968
815,1902
819,1788
823,1769
827,2003
831,2554
835,3301
839,4095
843,4095
847,4095
851,3471
855,2673
859,2173
863,2053
867,2015
871,2016
875,2001
879,1991
883,1975
887,1953
891,1935
895,1926
899,1936
903,1934
907,1931
911,1936
915,1936
919,1946
923,1934
927,1941
931,1946
935,1951
939,1947
943,1959
947,1962
951,1964
955,1955
959,1966
963,1979
967,1986
971,1984
975,1991
979,1999
983,2006
987,2006
991,2007
995,2020
999,2034
1003,2033
1007,2029
1011,2045
1015,2066
1019,2064
1023,2073
1027,2087
1031,2107
1035,2106
1039,2109
1043,2121
1047,2141
1051,2151
1055,2160
1059,2176
1063,2199
1067,2221
1071,2227
1075,2240
1079,2256
1083,2270
1087,2272
1091,2277
1095,2282
1099,2294
1103,2293
1107,2288
1111,2283
1115,2278
1119,2242
1123,2202
1127,2171
1131,2135
1135,2100
1139,2043
1143,2006
1147,1977
1151,1954
1155,1926
1159,1910
1163,1900
1167,1891
1171,1878
1175,1879
1179,1879
1183,1877
1187,1862
1191,1859
1195,1878
1199,1875
1203,1873
1207,1873
1211,1873
1215,1883
1219,1872
1223,1880
1227,1895
1231,1891
1235,1898
1239,1891
1243,1898
1247,1903
1251,1904
1255,1899
1259,1899
1263,1904
1267,1902
1271,1891
1275,1899
1279,1907
1283,1920
1287,1910
1291,1912
1295,1911
1299,1907
1303,1911
1307,1906
1311,1905
1315,1910
1319,1909
1323,1910
1327,1914
1331,1919
1335,1917
1339,1911
1343,1919
1347,1910
1351,1909
1355,1904
1359,1910
1363,1911
1367,1931
1371,1921
1375,1925
1379,1922
1383,1921
1387,1929
1391,1927
1395,1931
1399,1933
1403,1933
1407,1923
1411,1927
1415,1936
1419,1933
1423,1923
1427,1926
1431,1937
1435,1937
1439,1935
1443,1936
1447,1938
1451,1949
1455,1936
1459,1942
1463,1951
1467,1958
1471,1949
1475,1943
1479,1958
1483,1959
1487,1951
1491,1956
1495,1952
1499,1968
1503,1986
1507,2002
1511,2019
1515,2035
1519,2037
1523,2034
1527,2028
1531,2029
1535,2015
1539,2002
1543,1993
1547,1977
1551,1959
1555,1947
1559,1946
1563,1968
1567,1967
1571,1966
1575,1962
1579,1967
1583,1968
1587,1950
1591,1954
1595,1968
1599,1975
1603,1980
1607,1968
1611,1963
1615,1919
1619,1814
1623,1762
1627,1892
1631,2287
1635,2870
1639,3696
1643,4095
1647,4095
1651,3345
1655,2653
1659,2195
1663,2013
1667,1970
1671,1966
1675,1963
1679,1955
1683,1936
1687,1907
1691,1893
1695,1894
1699,1891
1703,1878
1707,1882
1711,1881
1715,1887
1719,1879
1723,1874
1727,1896
1731,1905
1735,1910
1739,1902
1743,1906
1747,1915
1751,1923
1755,1917
1759,1920
1763,1939
1767,1936
1771,1933
1775,1933
1779,1949
1783,1953
1787,1958
1791,1961
1795,1969
1799,1972
1803,1975
1807,1979
1811,1988
1815,1994
1819,2005
1823,2003
1827,2023
1831,2039
1835,2055
1839,2047
1843,2064
1847,2080
1851,2093
1855,2110
1859,2127
1863,2153
1867,2163
1871,2166
1875,2176
1879,2198
1883,2207
1887,2215
1891,2239
1895,2255
1899,2260
1903,2256
1907,2246
1911,2239
1915,2230
1919,2202
1923,2162
1927,2128
1931,2096
1935,2038
1939,1995
1943,1958
1947,1935
1951,1904
1955,1883
1959,1871
1963,1856
1967,1854
1971,1836
1975,1831
1979,1839
1983,1849
1987,1841
1991,1840
1995,1842
1999,1840
2003,1843
2007,1844
2011,1854
2015,1859
2019,1866
2023,1861
2027,1872
2031,1872
2035,1872
2039,1864
2043,1866
2047,1874
2051,1881
2055,1870
2059,1885
2063,1881
2067,1873
2071,1873
2075,1871
2079,1891
2083,1893
2087,1883
2091,1880
2095,1885
2099,1890
2103,1883
2107,1884
2111,1882
2115,1891
2119,1892
2123,1886
2127,1898
2131,1906
2135,1897
2139,1883
2143,1887
2147,1904
2151,1899
2155,1892
2159,1898
2163,1906
2167,1905
2171,1904
2175,1895
2179,1905
2183,1910
2187,1904
2191,1904
2195,1914
2199,1914
2203,1906
2207,1911
2211,1911
2215,1918
2219,1913
2223,1911
2227,1911
2231,1926
2235,1927
2239,1922
2243,1920
2247,1936
2251,1936
2255,1927
2259,1928
2263,1938
2267,1936
2271,1932
2275,1931
2279,1938
2283,1947
2287,1939
2291,1940
2295,1953
2299,1968
2303,1957
2307,1943
2311,1952
2315,1968
2319,1983
2323,2000
2327,2025
2331,2039
2335,2041
2339,2031
2343,2022
2347,2015
2351,2012
2355,1984
2359,1968
2363,1949
2367,1951
2371,1946
2375,1946
2379,1968
2383,1966
2387,1961
2391,1966
2395,1969
2399,1974
2403,1967
2407,1965
2411,1963
2415,1967
2419,1970
2423,1959
2427,1933
2431,1842
2435,1758
2439,1821
2443,2168
2447,2754
2451,3571
2455,4095
2459,4095
2463,3799
2467,2955
2471,2352
2475,2063
2479,1989
2483,2003
2487,1995
2491,1981
2495,1955
2499,1938
2503,1913
2507,1895
2511,1888
2515,1897
2519,1897
2523,1900
2527,1904
2531,1911
2535,1904
2539,1903
2543,1905
2547,1923
2551,1923
2555,1920
2559,1926
2563,1936
2567,1949
2571,1946
2575,1937
2579,1947
2583,1950
2587,1953
2591,1950
2595,1968
2599,1973
2603,1975
2607,1970
2611,1985
2615,2000
2619,2000
2623,1988
2627,2007
2631,2017
2635,2033
2639,2059
2643,2037
2647,2060
2651,2064
2655,2066
2659,2080
2663,2102
2667,2109
2671,2150
2675,2128
2679,2158
2683,2175
2687,2177
2691,2179
2695,2186
2699,2201
2703,2210
2707,2211
2711,2231
2715,2231
2719,2231
2723,2228
2727,2224
2731,2206
2735,2177
2739,2131
2743,2096
2747,2061
2751,2006
2755,1968
2759,1945
2763,1920
2767,1898
2771,1872
2775,1857
2779,1851
2783,1852
2787,1840
2791,1837
2795,1846
2799,1845
2803,1838
2807,1842
2811,1836
2815,1842
2819,1843
2823,1840
2827,1844
2831,1858
2835,1855
2839,1856
2843,1849
2847,1851
2851,1851
2855,1854
2859,1856
2863,1861
2867,1860
2871,1857
2875,1866
2879,1875
2883,1872
2887,1867
2891,1862
2895,1869
2899,1875
2903,1869
2907,1859
2911,1871
2915,1872
2919,1871
2923,1869
2927,1870
2931,1871
2935,1863
2939,1861
2943,1866
2947,1863
2951,1870
2955,1857
2959,1862
2963,1876
2967,1872
2971,1862
2975,1861
2979,1872
2983,1873
2987,1867
2991,1862
2995,1872
2999,1873
3003,1872
3007,1870
3011,1869
3015,1873
3019,1872
3023,1869
3027,1873
3031,1889
3035,1875
3039,1872
3043,1872
3047,1879
3051,1889
3055,1876
3059,1871
3063,1883
3067,1889
3071,1884
3075,1890
3079,1904
3083,1901
3087,1899
3091,1893
3095,1886
3099,1904
3103,1917
3107,1927
3111,1964
3115,1987
3119,1994
3123,1989
3127,1984
3131,1977
3135,1959
3139,1941
3143,1940
3147,1913
3151,1907
3155,1899
3159,1895
3163,1913
3167,1920
3171,1911
3175,1904
3179,1918
3183,1918
3187,1911
3191,1904
3195,1908
3199,1920
3203,1919
3207,1913
3211,1901
3215,1867
3219,1776
3223,1733
3227,1871
3231,2253
3235,2800
3239,3526
3243,4095
3247,3767
3251,3038
3255,2431
3259,2046
3263,1925
3267,1911
3271,1926
3275,1925
3279,1921
3283,1907
3287,1875
3291,1863
3295,1862
3299,1867
3303,1860
3307,1855
3311,1858
3315,1867
3319,1871
3323,1862
3327,1872
3331,1873
3335,1885
3339,1882
3343,1890
3347,1897
3351,1897
3355,1897
3359,1898
3363,1911
3367,1915
3371,1925
3375,1920
3379,1936
3383,1950
3387,1939
3391,1941
3395,1962
3399,1968
3403,1968
3407,1957
3411,1973
3415,1986
3419,2000
3423,2000
3427,2018
3431,2031
3435,2033
3439,2032
3443,2047
3447,2069
3451,2083
3455,2089
3459,2101
3463,2127
3467,2134
3471,2138
3475,2148
3479,2161
3483,2172
3487,2175
3491,2173
3495,2186
3499,2192
3503,2195
3507,2190
3511,2192
3515,2187
3519,2161
3523,2126
3527,2094
3531,2045
3535,2002
3539,1968
3543,1937
3547,1904
3551,1882
3555,1829
3559,1852
3563,1840
3567,1829
3571,1825
3575,1821
3579,1785
3583,1829
3587,1796
3591,1838
3595,1839
3599,1824
3603,1843
3607,1831
3611,1839
3615,1842
3619,1851
3623,1853
3627,1867
3631,1874
3635,1865
3639,1857
3643,1871
3647,1872
3651,1872
3655,1869
3659,1865
3663,1872
3667,1870
3671,1871
3675,1869
3679,1874
3683,1874
3687,1875
3691,1872
3695,1873
3699,1883
3703,1879
3707,1874
3711,1870
3715,1887
3719,1895
3723,1890
3727,1875
3731,1888
3735,1881
3739,1873
3743,1889
3747,1904
3751,1911
3755,1891
3759,1887
3763,1894
3767,1904
3771,1901
3775,1895
3779,1903
3783,1907
3787,1894
3791,1904
3795,1914
3799,1909
3803,1908
3807,1898
3811,1904
3815,1918
3819,1907
3823,1904
3827,1918
3831,1925
3835,1920
3839,1911
3843,1919
3847,1936
3851,1947
3855,1963
3859,1982
3863,2007
3867,2007
3871,1984
3875,1968
3879,1968
3883,1973
3887,1951
3891,1933
3895,1922
3899,1919
3903,1934
3907,1934
3911,1943
3915,1943
3919,1936
3923,1931
3927,1931
3931,1943
3935,1943
3939,1927
3943,1921
3947,1938
3951,1941
3955,1934
3959,1894
3963,1822
3967,1773
3971,1894
3975,2240
3979,2771
3983,3467
3987,4069
3991,3696
3995,3043
3999,2475
4003,2087
4007,1938
4011,1936
4015,1965
4019,1967
4023,1936
4027,1932
4031,1919
4035,1905
4039,1893
4043,1892
4047,1890
4051,1889
4055,1887
4059,1891
4063,1901
4067,1907
4071,1904
4075,1895
4079,1913
4083,1920
4087,1919
4091,1913
4095,1926
4099,1938
4103,1943
4107,1935
4111,1936
4115,1939
4119,1947
4123,1951
4127,1969
4131,1973
4135,1979
4139,1984
4143,1983
4147,2000
4151,2000
4155,2000
4159,2013
4163,2032
4167,2037
4171,2037
4175,2038
4179,2064
4183,2081
4187,2071
4191,2087
4195,2103
4199,2122
4203,2128
4207,2128
4211,2150
4215,2170
4219,2177
4223,2170
4227,2179
4231,2195
4235,2205
4239,2204
4243,2217
4247,2222
4251,2219
4255,2197
4259,2177
4263,2160
4267,2131
4271,2090
4275,2043
4279,2011
4283,1984
4287,1955
4291,1920
4295,1901
4299,1887
4303,1873
4307,1856
4311,1850
4315,1842
4319,1852
4323,1842
4327,1838
4331,1849
4335,1856
4339,1851
4343,1858
4347,1869
4351,1867
4355,1856
4359,1868
4363,1877
4367,1872
4371,1874
4375,1871
4379,1883
4383,1890
4387,1877
4391,1879
4395,1872
4399,1889
4403,1885
4407,1872
4411,1873
4415,1875
4419,1881
4423,1872
4427,1889
4431,1898
4435,1898
4439,1875
4443,1885
4447,1888
4451,1888
4455,1904
4459,1886
4463,1904
4467,1893
4471,1872
4475,1874
4479,1887
4483,1917
4487,1891
4491,1877
4495,1891
4499,1897
4503,1904
4507,1936
4511,1903
4515,1904
4519,1903
4523,1886
4527,1894
4531,1917
4535,1919
4539,1917
4543,1907
4547,1904
4551,1919
4555,1898
4559,1904
4563,1914
4567,1939
4571,1974
4575,1990
4579,2001
4583,2000
4587,1973
4591,1953
4595,1957
4599,1945
4603,1936
4607,1917
4611,1915
4615,1931
4619,1935
4623,1930
4627,1930
4631,1931
4635,1919
4639,1899
4643,1919
4647,1936
4651,1931
4655,1936
4659,1936
4663,1953
4667,1954
4671,1936
4675,1886
4679,1814
4683,1802
4687,1945
4691,2267
4695,2736
4699,3266
4703,3471
4707,3150
4711,2693
4715,2257
4719,1999
4723,1911
4727,1933
4731,1965
4735,1961
4739,1942
4743,1943
4747,1943
4751,1943
4755,1931
4759,1927
4763,1936
4767,1938
4771,1943
4775,1939
4779,1936
4783,1936
4787,1941
4791,1950
4795,1959
4799,1965
4803,1953
4807,1961
4811,1965
4815,1970
4819,1972
4823,1972
4827,1995
4831,1995
4835,1994
4839,2000
4843,2003
4847,2012
4851,2021
4855,2022
4859,2031
4863,2035
4867,2035
4871,2021
4875,2034
4879,2063
4883,2092
4887,2089
4891,2074
4895,2078
4899,2090
4903,2101
4907,2111
4911,2129
4915,2130
4919,2115
4923,2125
4927,2135
4931,2165
4935,2161
4939,2148
4943,2149
4947,2167
4951,2165
4955,2167
4959,2173
4963,2176
4967,2183
4971,2165
4975,2133
4979,2110
4983,2086
4987,2032
4991,1996
4995,1979
4999,1955
5003,1915
5007,1901
5011,1903
5015,1901
5019,1889
5023,1872
5027,1859
5031,1888
5035,1886
5039,1861
5043,1862
5047,1878
5051,1868
5055,1857
5059,1863
5063,1869
5067,1872
5071,1861
5075,1852
5079,1846
5083,1873
5087,1872
5091,1862
5095,1872
5099,1872
5103,1867
5107,1858
5111,1857
5115,1869
5119,1888
5123,1883
5127,1886
5131,1889
5135,1873
5139,1853
5143,1859
5147,1871
5151,1897
5155,1881
5159,1863
5163,1854
5167,1856
5171,1870
5175,1877
5179,1891
5183,1900
5187,1884
5191,1880
5195,1890
5199,1904
5203,1893
5207,1893
5211,1894
5215,1901
5219,1901
5223,1905
5227,1947
5231,1978
5235,1975
5239,1941
5243,1935
5247,1933
5251,1920
5255,1918
5259,1921
5263,1924
5267,1921
5271,1901
5275,1897
5279,1904
5283,1920
5287,1914
5291,1918
5295,1933
5299,1935
5303,1936
5307,1925
5311,1926
5315,1947
5319,1952
5323,1943
5327,1942
5331,1914
5335,1872
5339,1889
5343,2002
5347,2239
5351,2549
5355,2854
5359,2839
5363,2577
5367,2257
5371,1998
5375,1894
5379,1904
5383,1935
5387,1959
5391,1968
5395,1983
5399,1995
5403,1969
5407,1943
5411,1975
5415,1965
5419,1962
5423,1956
5427,1966
5431,1968
5435,1968
5439,1968
5443,1968
5447,1974
5451,1983
5455,1978
5459,1982
5463,1985
5467,1988
5471,1983
5475,1985
5479,1990
5483,1997
5487,1995
5491,1988
5495,2000
5499,2003
5503,2000
5507,1999
5511,2000
5515,2018
5519,2023
5523,2026
5527,2023
5531,2031
5535,2039
5539,2037
5543,2044
5547,2057
5551,2068
5555,2068
5559,2069
5563,2089
5567,2102
5571,2097
5575,2099
5579,2122
5583,2131
5587,2118
5591,2125
5595,2134
5599,2148
5603,2145
5607,2151
5611,2160
5615,2170
5619,2151
5623,2130
5627,2119
5631,2102
5635,2071
5639,2032
5643,1998
5647,1983
5651,1955
5655,1927
5659,1907
5663,1903
5667,1895
5671,1874
5675,1872
5679,1882
5683,1889
5687,1875
5691,1872
5695,1874
5699,1890
5703,1883
5707,1872
5711,1882
5715,1891
5719,1888
5723,1885
5727,1887
5731,1894
5735,1899
5739,1889
5743,1885
5747,1901
5751,1903
5755,1893
5759,1885
5763,1899
5767,1904
5771,1904
5775,1891
5779,1903
5783,1899
5787,1890
5791,1891
5795,1891
5799,1889
5803,1893
5807,1892
5811,1895
5815,1903
5819,1897
5823,1891
5827,1893
5831,1901
5835,1897
5839,1890
5843,1897
5847,1895
5851,1893
5855,1890
5859,1884
5863,1894
5867,1904
5871,1898
5875,1887
5879,1902
5883,1919
5887,1920
5891,1915
5895,1939
5899,1970
5903,1971
5907,1955
5911,1937
5915,1936
5919,1933
5923,1920
5927,1902
5931,1897
5935,1891
5939,1890
5943,1885
5947,1893
5951,1900
5955,1893
5959,1885
5963,1900
5967,1904
5971,1899
5975,1900
5979,1904
5983,1910
5987,1907
5991,1905
5995,1887
5999,1826
6003,1746
6007,1776
6011,2020
6015,2474
6019,3055
6023,3726
6027,3771
6031,3224
6035,2678
6039,2206
6043,1968
6047,1915
6051,1921
6055,1915
6059,1904
6063,1891
6067,1877
6071,1861
6075,1847
6079,1849
6083,1858
6087,1853
6091,1845
6095,1851
6099,1862
6103,1862
6107,1849
6111,1856
6115,1875
6119,1877
6123,1871
6127,1871
6131,1886
6135,1889
6139,1878
6143,1880
6147,1899
6151,1907
6155,1904
6159,1910
6163,1917
6167,1925
6171,1921
6175,1925
6179,1938
6183,1947
6187,1951
6191,1945
6195,1958
6199,1978
6203,1970
6207,1968
6211,1979
6215,1997
6219,2002
6223,2006
6227,2007
6231,2032
6235,2043
6239,2045
6243,2046
6247,2073
6251,2082
6255,2085
6259,2089
6263,2102
6267,2118
6271,2123
6275,2125
6279,2138
6283,2165
6287,2156
6291,2128
6295,2124
6299,2083
6303,2099
6307,2069
6311,1987
6315,1973
6319,1950
6323,1931
6327,1881
6331,1873
6335,1859
6339,1844
6343,1830
6347,1847
6351,1846
6355,1837
6359,1842
6363,1863
6367,1855
6371,1840
6375,1831
6379,1840
6383,1844
6387,1839
6391,1840
6395,1858
6399,1866
6403,1853
6407,1850
6411,1853
6415,1869
6419,1866
6423,1856
6427,1857
6431,1870
6435,1871
6439,1867
6443,1859
6447,1856
6451,1867
6455,1849
6459,1856
6463,1859
6467,1866
6471,1874
6475,1869
6479,1887
6483,1886
6487,1885
6491,1879
6495,1872
6499,1895
6503,1890
6507,1872
6511,1878
6515,1886
6519,1878
6523,1881
6527,1879
6531,1888
6535,1889
6539,1879
6543,1885
6547,1897
6551,1895
6555,1899
6559,1881
6563,1893
6567,1898
6571,1895
6575,1889
6579,1904
6583,1915
6587,1914
6591,1925
6595,1963
6599,1987
6603,1982
6607,1961
6611,1949
6615,1941
6619,1936
6623,1919
6627,1908
6631,1904
6635,1904
6639,1887
6643,1882
6647,1893
6651,1901
6655,1904
6659,1894
6663,1901
6667,1909
6671,1895
6675,1893
6679,1893
6683,1903
6687,1902
6691,1893
6695,1869
6699,1796
6703,1707
6707,1746
6711,2055
6715,2608
6719,3325
6723,4095
6727,4095
6731,3603
6735,2877
6739,2314
6743,2018
6747,1946
6751,1936
6755,1931
6759,1908
6763,1885
6767,1876
6771,1852
6775,1837
6779,1840
6783,1847
6787,1838
6791,1835
6795,1830
6799,1842
6803,1841
6807,1850
6811,1850
6815,1872
6819,1863
6823,1856
6827,1856
6831,1873
6835,1873
6839,1872
6843,1874
6847,1883
6851,1885
6855,1880
6859,1879
6863,1892
6867,1911
6871,1906
6875,1904
6879,1911
6883,1920
6887,1925
6891,1919
6895,1927
6899,1942
6903,1950
6907,1953
6911,1958
6915,1981
6919,1995
6923,2000
6927,2010
6931,2025
6935,2036
6939,2038
6943,2043
6947,2074
6951,2095
6955,2096
6959,2099
6963,2114
6967,2125
6971,2134
6975,2128
6979,2139
6983,2155
6987,2155
6991,2143
6995,2128
6999,2109
7003,2075
7007,2041
7011,2007
7015,1984
7019,1946
7023,1911
7027,1891
7031,1874
7035,1867
7039,1848
7043,1845
7047,1840
7051,1840
7055,1834
7059,1831
7063,1840
7067,1843
7071,1839
7075,1825
7079,1840
7083,1850
7087,1847
7091,1849
7095,1848
7099,1857
7103,1849
7107,1850
7111,1851
7115,1859
7119,1856
7123,1846
7127,1851
7131,1859
7135,1862
7139,1866
7143,1859
7147,1863
7151,1873
7155,1865
7159,1870
7163,1874
7167,1872
7171,1867
7175,1867
7179,1874
7183,1877
7187,1872
7191,1862
7195,1866
7199,1908
7203,1877
7207,1883
7211,1847
7215,1894
7219,1887
7223,1882
7227,1890
7231,1896
7235,1890
7239,1898
7243,1885
7247,1901
7251,1902
7255,1889
7259,1890
7263,1904
7267,1905
7271,1904
7275,1904
7279,1911
7283,1916
7287,1913
7291,1898
7295,1904
7299,1906
7303,1917
7307,1913
7311,1910
7315,1917
7319,1909
7323,1917
7327,1937
7331,1958
7335,1996
7339,2001
7343,1997
7347,1999
7351,1984
7355,1968
7359,1955
7363,1958
7367,1937
7371,1924
7375,1915
7379,1927
7383,1930
7387,1931
7391,1921
7395,1923
7399,1934
7403,1935
7407,1923
7411,1935
7415,1936
7419,1941
7423,1932
7427,1942
7431,1931
7435,1862
7439,1747
7443,1719
7447,1926
7451,2415
7455,3093
7459,4095
7463,4095
7467,4095
7471,3324
7475,2608
7479,2160
7483,1987
7487,1961
7491,1952
7495,1941
7499,1925
7503,1902
7507,1875
7511,1866
7515,1861
7519,1857
7523,1841
7527,1847
7531,1858
7535,1855
7539,1855
7543,1859
7547,1870
7551,1872
7555,1868
7559,1861
7563,1872
7567,1874
7571,1886
7575,1886
7579,1882
7583,1897
7587,1893
7591,1890
7595,1909
7599,1919
7603,1919
7607,1920
7611,1918
7615,1936
7619,1936
7623,1944
7627,1954
7631,1962
7635,1970
7639,1968
7643,1967
7647,1994
7651,2002
7655,2004
7659,2010
7663,2026
7667,2035
7671,2046
7675,2064
7679,2079
7683,2103
7687,2112
7691,2112
7695,2115
7699,2139
7703,2151
7707,2158
7711,2157
7715,2179
7719,2183
7723,2174
7727,2179
7731,2175
7735,2157
7739,2125
7743,2089
7747,2070
7751,2021
7755,1982
7759,1951
7763,1933
7767,1905
7771,1884
7775,1854
7779,1858
7783,1860
7787,1856
7791,1849
7795,1845
7799,1851
7803,1852
7807,1844
7811,1854
7815,1863
7819,1872
7823,1865
7827,1866
7831,1869
7835,1873
7839,1861
7843,1863
7847,1867
7851,1876
7855,1872
7859,1869
7863,1876
7867,1873
7871,1872
7875,1865
7879,1876
7883,1886
7887,1877
7891,1872
7895,1874
7899,1888
7903,1886
7907,1875
7911,1876
7915,1881
7919,1879
7923,1878
7927,1890
7931,1890
7935,1899
7939,1879
7943,1890
7947,1885
7951,1889
7955,1885
7959,1877
7963,1888
7967,1901
7971,1897
7975,1891
7979,1894
7983,1901
7987,1899
7991,1886
7995,1894
7999,1907
8003,1905
8007,1903
8011,1906
8015,1904
8019,1908
8023,1904
8027,1915
8031,1931
8035,1968
8039,1993
8043,2000
8047,2000
8051,1983
8055,1968
8059,1949
8063,1943
8067,1935
8071,1923
8075,1904
8079,1903
8083,1916
8087,1919
8091,1915
8095,1918
8099,1920
8103,1911
8107,1909
8111,1915
8115,1930
8119,1931
8123,1930
8127,1926
8131,1907
8135,1855
8139,1742
8143,1691
8147,1876
8151,2331
8155,3013
8159,4095
8163,4095
8167,4095
8171,3530
8175,2714
8179,2198
8183,1991
8187,1938
8191,1937
8195,1936
8199,1919
8203,1894
8207,1861
8211,1847
8215,1845
8219,1834
8223,1827
8227,1829
8231,1840
8235,1839
8239,1838
8243,1843
8247,1845
8251,1863
8255,1866
8259,1858
8263,1866
8267,1871
8271,1872
8275,1868
8279,1882
8283,1889
8287,1893
8291,1891
8295,1903
8299,1909
8303,1912
8307,1907
8311,1914
8315,1923
8319,1929
8323,1927
8327,1942
8331,1966
8335,1970
8339,1968
8343,1973
8347,1981
8351,2000
8355,2000
8359,2003
8363,2025
8367,2036
8371,2058
8375,2059
8379,2077
8383,2089
8387,2096
8391,2099
8395,2109
8399,2125
8403,2131
8407,2133
8411,2142
8415,2158
8419,2170
8423,2153
8427,2160
8431,2149
8435,2133
8439,2095
8443,2061
8447,2028
8451,2000
8455,1950
8459,1913
8463,1890
8467,1872
8471,1854
8475,1839
8479,1836
8483,1841
8487,1840
8491,1826
8495,1827
8499,1831
8503,1840
8507,1828
8511,1833
8515,1841
8519,1840
8523,1853
8527,1841
8531,1855
8535,1859
8539,1853
8543,1850
8547,1858
8551,1866
8555,1861
8559,1861
8563,1866
8567,1877
8571,1864
8575,1865
8579,1867
8583,1872
8587,1870
8591,1871
8595,1875
8599,1885
8603,1877
8607,1872
8611,1871
8615,1885
8619,1884
8623,1878
8627,1875
8631,1873
8635,1877
8639,1887
8643,1887
8647,1894
8651,1890
8655,1878
8659,1881
8663,1883
8667,1901
8671,1901
8675,1889
8679,1893
8683,1901
8687,1901
8691,1894
8695,1898
8699,1904
8703,1907
8707,1904
8711,1909
8715,1918
8719,1905
8723,1895
8727,1904
8731,1931
8735,1953
8739,1974
8743,1999
8747,2003
8751,1995
8755,1968
8759,1955
8763,1955
8767,1947
8771,1934
8775,1909
8779,1911
8783,1915
8787,1916
8791,1910
8795,1913
8799,1921
8803,1925
8807,1917
8811,1921
8815,1925
8819,1923
8823,1917
8827,1923
8831,1936
8835,1926
8839,1833
8843,1723
8847,1712
8851,1938
8855,2448
8859,3201
8863,4095
8867,4095
8871,4095
8875,3275
8879,2539
8883,2117
8887,1966
8891,1938
8895,1938
8899,1936
8903,1915
8907,1875
8911,1863
8915,1864
8919,1853
8923,1846
8927,1836
8931,1842
8935,1845
8939,1846
8943,1859
8947,1866
8951,1874
8955,1856
8959,1858
8963,1879
8967,1887
8971,1883
8975,1883
8979,1895
8983,1904
8987,1905
8991,1897
8995,1913
8999,1922
9003,1920
9007,1923
9011,1926
9015,1937
9019,1949
9023,1947
9027,1959
9031,1970
9035,1983
9039,1987
9043,1987
9047,1993
9051,2015
9055,2007
9059,2015
9063,2032
9067,2057
9071,2057
9075,2061
9079,2079
9083,2096
9087,2103
9091,2106
9095,2124
9099,2133
9103,2134
9107,2137
9111,2148
9115,2164
9119,2172
9123,2176
9127,2182
9131,2177
9135,2240
9139,2128
9143,2091
9147,2073
9151,2031
9155,1989
9159,1975
9163,1934
9167,1907
9171,1874
9175,1858
9179,1849
9183,1846
9187,1840
9191,1841
9195,1840
9199,1851
9203,1853
9207,1841
9211,1839
9215,1863
9219,1865
9223,1855
9227,1861
9231,1865
9235,1870
9239,1861
9243,1859
9247,1870
9251,1872
9255,1868
9259,1860
9263,1869
9267,1878
9271,1875
9275,1872
9279,1872
9283,1878
9287,1875
9291,1875
9295,1879
9299,1889
9303,1889
9307,1877
9311,1873
9315,1891
9319,1891
9323,1879
9327,1879
9331,1879
9335,1873
9339,1875
9343,1871
9347,1882
9351,1889
9355,1872
9359,1877
9363,1889
9367,1887
9371,1877
9375,1878
9379,1885
9383,1891
9387,1889
9391,1881
9395,1889
9399,1900
9403,1891
9407,1889
9411,1893
9415,1890
9419,1904
9423,1888
9427,1891
9431,1899
9435,1900
9439,1903
9443,1901
9447,1901
9451,1909
9455,1906
9459,1903
9463,1903
9467,1907
9471,1905
9475,1903
9479,1904
9483,1909
9487,1921
9491,1914
9495,1919
9499,1925
9503,1933
9507,1945
9511,1975
9515,1994
9519,2002
9523,2002
9527,2002
9531,1997
9535,1990
9539,1969
9543,1957
9547,1937
9551,1925
9555,1921
9559,1915
9563,1925
9567,1934
9571,1921
9575,1921
9579,1930
9583,1937
9587,1937
9591,1923
9595,1922
9599,1938
9603,1938
9607,1935
9611,1930
9615,1893
9619,1806
9623,1725
9627,1794
9631,2165
9635,2776
9639,3664
9643,4095
9647,4095
9651,3664
9655,2825
9659,2254
9663,2009
9667,1963
9671,1953
9675,1939
9679,1931
9683,1917
9687,1893
9691,1858
9695,1856
9699,1854
9703,1856
9707,1856
9711,1856
9715,1854
9719,1859
9723,1857
9727,1867
9731,1879
9735,1882
9739,1885
9743,1879
9747,1891
9751,1899
9755,1892
9759,1900
9763,1904
9767,1905
9771,1909
9775,1906
9779,1914
9783,1939
9787,1933
9791,1938
9795,1938
9799,1949
9803,1952
9807,1954
9811,1968
9815,1981
9819,1995
9823,1991
9827,1999
9831,2005
9835,2015
9839,2022
9843,2029
9847,2055
9851,2064
9855,2070
9859,2064
9863,2077
9867,2086
9871,2096
9875,2106
9879,2112
9883,2129
9887,2133
9891,2133
9895,2155
9899,2158
9903,2162
9907,2161
9911,2160
9915,2157
9919,2130
9923,2100
9927,2067
9931,2032
9935,1998
9939,1959
9943,1933
9947,1907
9951,1888
9955,1871
9959,1840
9963,1855
9967,1856
9971,1847
9975,1840
9979,1840
9983,1841
9987,1851
9991,1840
9995,1842
9999,1866
10003,1861
10007,1842
10011,1840
10015,1858
10019,1865
10023,1862
10027,1858
10031,1869
10035,1867
10039,1871
10043,1856
10047,1813
10051,1870
10055,1869
10059,1856
10063,1866
10067,1851
10071,1872
10075,1859
10079,1854
10083,1866
10087,1856
10091,1856
10095,1853
10099,1871
10103,1867
10107,1858
10111,1863
10115,1877
10119,1873
10123,1869
10127,1872
10131,1883
10135,1889
10139,1888
10143,1883
10147,1875
10151,1879
10155,1877
10159,1872
10163,1885
10167,1895
10171,1886
10175,1884
10179,1898
10183,1903
10187,1905
10191,1895
10195,1890
10199,1905
10203,1906
10207,1904
10211,1901
10215,1904
10219,1905
10223,1905
10227,1907
10231,1922
10235,1913
10239,1911
10243,1907
10247,1923
10251,1921
10255,1918
10259,1914
10263,1918
10267,1920
10271,1925
10275,1933
10279,1931
10283,1931
10287,1936
10291,1932
10295,1932
10299,1936
10303,1943
10307,1943
10311,1966
10315,1990
10319,1995
10323,2000
10327,2012
10331,2032
10335,2021
10339,2000
10343,1989
10347,1985
10351,1981
10355,1959
10359,1931
10363,1941
10367,1947
10371,1940
10375,1938
10379,1953
10383,1959
10387,1954
10391,1939
10395,1944
10399,1952
10403,1954
10407,1941
10411,1955
10415,1968
10419,1954
10423,1886
10427,1794
10431,1787
10435,1968
10439,2378
10443,2983
10447,3874
10451,4095
10455,3696
10459,2913
10463,2325
10467,2042
10471,1958
10475,1963
10479,1984
10483,1987
10487,1968
10491,1935
10495,1917
10499,1914
10503,1907
10507,1902
10511,1899
10515,1910
10519,1909
10523,1913
10527,1905
10531,1915
10535,1921
10539,1920
10543,1914
10547,1926
10551,1931
10555,1936
10559,1938
10563,1955
10567,1963
10571,1955
10575,1951
10579,1950
10583,1968
10587,1979
10591,1982
10595,1987
10599,2004
10603,2017
10607,2000
10611,2016
10615,2032
10619,2041
10623,2032
10627,2025
10631,2037
10635,2063
10639,2066
10643,2067
10647,2073
10651,2085
10655,2087
10659,2096
10663,2111
10667,2128
10671,2127
10675,2119
10679,2137
10683,2148
10687,2142
10691,2134
10695,2138
10699,2151
10703,2154
10707,2160
10711,2150
10715,2160
10719,2158
10723,2138
10727,2106
10731,2080
10735,2062
10739,2025
10743,1991
10747,1969
10751,1946
10755,1917
10759,1895
10763,1895
10767,1877
10771,1861
10775,1855
10779,1859
10783,1870
10787,1871
10791,1851
10795,1854
10799,1869
10803,1872
10807,1872
10811,1862
10815,1881
10819,1876
10823,1870
10827,1874
10831,1886
10835,1882
10839,1879
10843,1893
10847,1897
10851,1905
10855,1895
10859,1882
10863,1887
10867,1892
10871,1881
10875,1889
10879,1893
10883,1909
10887,1901
10891,1898
10895,1895
10899,1901
10903,1904
10907,1891
10911,1891
10915,1903
10919,1904
10923,1902
10927,1891
10931,1902
10935,1911
10939,1899
10943,1890
10947,1903
10951,1904
10955,1903
10959,1905
10963,1907
10967,1911
10971,1917
10975,1905
10979,1916
10983,1921
10987,1907
10991,1904
10995,1906
10999,1920
11003,1936
11007,1930
11011,1950
11015,1925
11019,1927
11023,1923
11027,1922
11031,1935
11035,1931
11039,1933
11043,1931
11047,1935
11051,1939
11055,1944
11059,1959
11063,1978
11067,1999
11071,2005
11075,2000
11079,2004
11083,2020
11087,2026
11091,2003
11095,1985
11099,1984
11103,1968
11107,1941
11111,1927
11115,1939
11119,1942
11123,1939
11127,1924
11131,1935
11135,1944
11139,1944
11143,1936
11147,1938
11151,1947
11155,1952
11159,1942
11163,1946
11167,1941
11171,1936
11175,1885
11179,1821
11183,1808
11187,1933
11191,2242
11195,2721
11199,3349
11203,3751
11207,3373
11211,2809
11215,2294
11219,1984
11223,1905
11227,1916
11231,1961
11235,1978
11239,1964
11243,1938
11247,1936
11251,1923
11255,1917
11259,1917
11263,1919
11267,1933
11271,1923
11275,1919
11279,1919
11283,1934
11287,1930
11291,1936
11295,1936
11299,1951
11303,1950
11307,1946
11311,1955
11315,1964
11319,1972
11323,1969
11327,1975
11331,1984
11335,1990
11339,1996
11343,1987
11347,1997
11351,2016
11355,2012
11359,2014
11363,2029
11367,2043
11371,2039
11375,2033
11379,2041
11383,2061
11387,2066
11391,2067
11395,2078
11399,2095
11403,2099
11407,2110
11411,2112
11415,2128
11419,2143
11423,2144
11427,2148
11431,2158
11435,2165
11439,2161
11443,2161
11447,2171
11451,2177
11455,2181
11459,2175
11463,2181
11467,2181
11471,2160
11475,2123
11479,2096
11483,2067
11487,2039
11491,2001
11495,1965
11499,1949
11503,1927
11507,1894
11511,1886
11515,1872
11519,1872
11523,1862
11527,1856
11531,1857
11535,1856
11539,1856
11543,1856
11547,1866
11551,1867
11555,1855
11559,1851
11563,1856
11567,1879
11571,1871
11575,1877
11579,1869
11583,1879
11587,1872
11591,1867
11595,1873
11599,1887
11603,1892
11607,1883
11611,1891
11615,1887
11619,1891
11623,1876
11627,1882
11631,1894
11635,1904
11639,1887
11643,1879
11647,1874
11651,1886
11655,1889
11659,1884
11663,1887
11667,1888
11671,1884
11675,1875
11679,1882
11683,1894
11687,1885
11691,1882
11695,1875
11699,1887
11703,1891
11707,1899
11711,1895
11715,1898
11719,1904
11723,1892
11727,1888
11731,1901
11735,1904
11739,1898
11743,1893
11747,1899
11751,1901
11755,1902
11759,1901
11763,1905
11767,1914
11771,1911
11775,1910
11779,1916
11783,1922
11787,1920
11791,1906
11795,1912
11799,1920
11803,1921
11807,1919
11811,1919
11815,1919
11819,1933
11823,1935
11827,1957
11831,1973
11835,1995
11839,1991
11843,1986
11847,1984
11851,1978
11855,1958
11859,1938
11863,1937
11867,1929
11871,1931
11875,1937
11879,1898
11883,1927
11887,1930
11891,1927
11895,1915
11899,1920
11903,1921
11907,1923
11911,1923
11915,1951
11919,1928
11923,1931
11927,1925
11931,1926
11935,1902
11939,1813
11943,1735
11947,1795
11951,2085
11955,2554
11959,3191
11963,4011
11967,4020
11971,3331
11975,2677
11979,2192
11983,1979
11987,1935
11991,1936
11995,1946
11999,1950
12003,1932
12007,1899
12011,1874
12015,1883
12019,1872
12023,1871
12027,1859
12031,1875
12035,1882
12039,1871
12043,1866
12047,1882
12051,1888
12055,1890
12059,1889
12063,1903
12067,1911
12071,1919
12075,1907
12079,1910
12083,1919
12087,1924
12091,1919
12095,1920
12099,1938
12103,1945
12107,1940
12111,1939
12115,1949
12119,1966
12123,1967
12127,1952
12131,1967
12135,1978
12139,1989
12143,1983
12147,1997
12151,2012
12155,2018
12159,2029
12163,2032
12167,2053
12171,2066
12175,2069
12179,2087
12183,2101
12187,2118
12191,2117
12195,2127
12199,2150
12203,2151
12207,2153
12211,2155
12215,2166
12219,2176
12223,2161
12227,2155
12231,2154
12235,2137
12239,2102
12243,2065
12247,2023
12251,2000
12255,1964
12259,1934
12263,1904
12267,1888
12271,1870
12275,1855
12279,1840
12283,1841
12287,1831
12291,1827
12295,1822
12299,1837
12303,1839
12307,1831
12311,1826
12315,1840
12319,1847
12323,1840
12327,1838
12331,1840
12335,1856
12339,1857
12343,1853
12347,1853
12351,1854
12355,1849
12359,1840
12363,1857
12367,1863
12371,1854
12375,1855
12379,1857
12383,1868
12387,1862
12391,1859
12395,1856
12399,1861
12403,1866
12407,1861
12411,1866
12415,1869
12419,1857
12423,1856
12427,1856
12431,1861
12435,1870
12439,1867
12443,1856
12447,1867
12451,1868
12455,1857
12459,1857
12463,1869
12467,1872
12471,1873
12475,1870
12479,1870
12483,1882
12487,1874
12491,1877
12495,1873
12499,1886
12503,1877
12507,1869
12511,1874
12515,1885
12519,1888
12523,1887
12527,1883
12531,1887
12535,1893
12539,1890
12543,1878
12547,1884
12551,1904
12555,1895
12559,1885
12563,1889
12567,1893
12571,1901
12575,1888
12579,1904
12583,1909
12587,1913
12591,1910
12595,1904
12599,1904
12603,1915
12607,1911
12611,1909
12615,1917
12619,1920
12623,1918
12627,1910
12631,1917
12635,1923
12639,1911
12643,1908
12647,1915
12651,1929
12655,1925
12659,1919
12663,1927
12667,1930
12671,1936
12675,1925
12679,1921
12683,1930
12687,1936
12691,1936
12695,1934
12699,1942
12703,1941
12707,1941
12711,1958
12715,1984
12719,1999
12723,2002
12727,2001
12731,2009
12735,2011
12739,1985
12743,1975
12747,1974
12751,1969
12755,1954
12759,1925
12763,1936
12767,1937
12771,1938
12775,1936
12779,1937
12783,1948
12787,1953
12791,1936
12795,1933
12799,1942
12803,1955
12807,1939
12811,1943
12815,1963
12819,1952
12823,1905
12827,1805
12831,1718
12835,1818
12839,2207
12843,2818
12847,3696
12851,4095
12855,4095
12859,3959
12863,3087
12867,2424
12871,2081
12875,1960
12879,1951
12883,1947
12887,1946
12891,1904
12895,1878
12899,1872
12903,1859
12907,1855
12911,1843
12915,1847
12919,1840
12923,1847
12927,1843
12931,1851
12935,1866
12939,1866
12943,1869
12947,1863
12951,1874
12955,1877
12959,1871
12963,1878
12967,1899
12971,1899
12975,1884
12979,1889
12983,1904
12987,1907
12991,1904
12995,1911
12999,1931
13003,1939
13007,1929
13011,1929
13015,1945
13019,1952
13023,1955
13027,1951
13031,1968
13035,1978
13039,1987
13043,1993
13047,2006
13051,2031
13055,2033
13059,2030
13063,2058
13067,2075
13071,2082
13075,2087
13079,2096
13083,2126
13087,2130
13091,2129
13095,2146
13099,2160
13103,2170
13107,2176
13111,2178
13115,2186
13119,2181
13123,2160
13127,2129
13131,2112
13135,2080
13139,2045
13143,2005
13147,1969
13151,1943
13155,1909
13159,1879
13163,1862
13167,1858
13171,1850
13175,1840
13179,1839
13183,1843
13187,1845
13191,1821
13195,1837
13199,1844
13203,1849
13207,1840
13211,1837
13215,1855
13219,1857
13223,1853
13227,1841
13231,1854
13235,1865
13239,1853
13243,1855
13247,1857
13251,1860
13255,1858
13259,1856
13263,1851
13267,1859
13271,1859
13275,1857
13279,1862
13283,1871
13287,1879
13291,1871
13295,1872
13299,1888
13303,1879
13307,1881
13311,1872
13315,1885
13319,1897
13323,1885
13327,1874
13331,1885
13335,1879
13339,1889
13343,1881
13347,1889
13351,1896
13355,1893
13359,1877
13363,1891
13367,1901
13371,1904
13375,1901
13379,1894
13383,1892
13387,1895
13391,1886
13395,1893
13399,1909
13403,1904
13407,1903
13411,1894
13415,1904
13419,1907
13423,1904
13427,1898
13431,1908
13435,1919
13439,1911
13443,1905
13447,1915
13451,1921
13455,1922
13459,1919
13463,1917
13467,1922
13471,1935
13475,1920
13479,1936
13483,1935
13487,1931
13491,1925
13495,1920
13499,1933
13503,1934
13507,1936
13511,1926
13515,1936
13519,1943
13523,1940
13527,1936
13531,1936
13535,1947
13539,1954
13543,1937
13547,1941
13551,1949
13555,1951
13559,1943
13563,1943
13567,1965
13571,1956
13575,1953
13579,1951
13583,1965
13587,1958
13591,1963
13595,1959
13599,1958
13603,1968
13607,1963
13611,1962
13615,1960
13619,1968
13623,1968
13627,1951
13631,1959
13635,1966
13639,1971
13643,1957
13647,1963
13651,1968
13655,1968
13659,1968
13663,1969
13667,1979
13671,1984
13675,1967
13679,1970
13683,1970
13687,1989
13691,2009
13695,2029
13699,2032
13703,2013
13707,2041
13711,2062
13715,2042
13719,2037
13723,2018
13727,2002
13731,2000
13735,1998
13739,1970
13743,1969
13747,1974
13751,1971
13755,1984
13759,1968
13763,1979
13767,1995
13771,1995
13775,1983
13779,1984
13783,1984
13787,1981
13791,1987
13795,1983
13799,1986
13803,1936
13807,1819
13811,1727
13815,1842
13819,2255
13823,2908
13827,3908
13831,4095
13835,4095
13839,4095
13843,3142
13847,2453
13851,2109
13855,1999
13859,1973
13863,1981
13867,1969
13871,1942
13875,1906
13879,1885
13883,1887
13887,1872
13891,1871
13895,1857
13899,1867
13903,1872
13907,1867
13911,1870
13915,1879
13919,1898
13923,1883
13927,1878
13931,1893
13935,1899
13939,1902
13943,1893
13947,1904
13951,1920
13955,1926
13959,1923
13963,1923
13967,1930
13971,1936
13975,1934
13979,1945
13983,1947
13987,1953
13991,1953
13995,1951
13999,1968
14003,1978
14007,1973
14011,1980
14015,1994
14019,2001
14023,2015
14027,2020
14031,2046
14035,2061
14039,2066
14043,2071
14047,2091
14051,2109
14055,2121
14059,2119
14063,2138
14067,2160
14071,2161
14075,2165
14079,2163
14083,2177
14087,2183
14091,2188
14095,2192
14099,2196
14103,2194
14107,2165
14111,2129
14115,2107
14119,2069
14123,2027
14127,1984
14131,1955
14135,1934
14139,1904
14143,1879
14147,1862
14151,1860
14155,1856
14159,1840
14163,1839
14167,1843
14171,1845
14175,1833
14179,1833
14183,1842
14187,1845
14191,1844
14195,1849
14199,1856
14203,1857
14207,1851
14211,1855
14215,1855
14219,1869
14223,1866
14227,1858
14231,1857
14235,1866
14239,1872
14243,1871
14247,1873
14251,1882
14255,1876
14259,1856
14263,1869
14267,1877
14271,1878
14275,1877
14279,1881
14283,1885
14287,1895
14291,1891
14295,1878
14299,1882
14303,1886
14307,1879
14311,1875
14315,1891
14319,1890
14323,1890
14327,1878
14331,1887
14335,1894
14339,1891
14343,1881
14347,1889
14351,1898
14355,1899
14359,1893
14363,1904
14367,1904
14371,1899
14375,1891
14379,1887
14383,1902
14387,1908
14391,1910
14395,1906
14399,1904
14403,1904
14407,1901
14411,1895
14415,1905
14419,1921
14423,1910
14427,1909
14431,1916
14435,1920
14439,1917
14443,1914
14447,1910
14451,1933
14455,1919
14459,1921
14463,1919
14467,1917
14471,1921
14475,1920
14479,1923
14483,1927
14487,1935
14491,1921
14495,1922
14499,1935
14503,1936
14507,1935
14511,1926
14515,1936
14519,1947
14523,1938
14527,1930
14531,1937
14535,1947
14539,1949
14543,1936
14547,1943
14551,1958
14555,1947
14559,1941
14563,1936
14567,1945
14571,1951
14575,1949
14579,1950
14583,1966
14587,1968
14591,1954
14595,1952
14599,1957
14603,1961
14607,1954
14611,1966
14615,1967
14619,1968
14623,1925
14627,1947
14631,1962
14635,1977
14639,1971
14643,1957
14647,1974
14651,2000
14655,1972
14659,1957
14663,1979
14667,1981
14671,1993
14675,1970
14679,1964
14683,1993
14687,2019
14691,2032
14695,2029
14699,2037
14703,2046
14707,2043
14711,2032
14715,2028
14719,2022
14723,2007
14727,1994
14731,1986
14735,1982
14739,1966
14743,1952
14747,1959
14751,1984
14755,1974
14759,1967
14763,1967
14767,1969
14771,1968
14775,1965
14779,1971
14783,1979
14787,1978
14791,1970
14795,1967
14799,1941
14803,1872
14807,1783
14811,1791
14815,2037
14819,2535
14823,3236
14827,4095
14831,4095
14835,3808
14839,2992
14843,2374
14847,2062
14851,1979
14855,1984
14859,1994
14863,1979
14867,1970
14871,1937
14875,1907
14879,1907
14883,1906
14887,1904
14891,1904
14895,1889
14899,1901
14903,1904
14907,1904
14911,1906
14915,1918
14919,1923
14923,1914
14927,1905
14931,1918
14935,1926
14939,1932
14943,1924
14947,1933
14951,1943
14955,1957
14959,1954
14963,1954
14967,1964
14971,1966
14975,1967
14979,1973
14983,1983
14987,1994
14991,1995
14995,1990
14999,2007
15003,2018
15007,2010
15011,2017
15015,2039
15019,2055
15023,2064
15027,2069
15031,2083
15035,2096
15039,2095
15043,2100
15047,2114
15051,2138
15055,2137
15059,2147
15063,2160
15067,2165
15071,2174
15075,2176
15079,2176
15083,2190
15087,2194
15091,2181
15095,2173
15099,2176
15103,2164
15107,2139
15111,2101
15115,2064
15119,2039
15123,1998
15127,1969
15131,1946
15135,1925
15139,1904
15143,1875
15147,1859
15151,1869
15155,1859
15159,1846
15163,1845
15167,1847
15171,1839
15175,1819
15179,1837
15183,1850
15187,1859
15191,1853
15195,1850
15199,1862
15203,1872
15207,1869
15211,1860
15215,1872
15219,1874
15223,1872
15227,1870
15231,1872
15235,1881
15239,1881
15243,1875
15247,1872
15251,1886
15255,1888
15259,1889
15263,1887
15267,1893
15271,1901
15275,1885
15279,1885
15283,1891
15287,1886
15291,1879
15295,1881
15299,1895
15303,1902
15307,1892
15311,1887
15315,1895
15319,1903
15323,1893
15327,1885
15331,1891
15335,1890
15339,1894
15343,1892
15347,1895
15351,1905
15355,1902
15359,1892
15363,1897
15367,1911
15371,1909
15375,1903
15379,1894
15383,1910
15387,1925
15391,1907
15395,1899
15399,1918
15403,1920
15407,1918
15411,1911
15415,1915
15419,1929
15423,1927
15427,1924
15431,1926
15435,1937
15439,1938
15443,1931
15447,1925
15451,1936
15455,1936
15459,1938
15463,1934
15467,1946
15471,1952
15475,1938
15479,1933
15483,1946
15487,1942
15491,1946
15495,1952
15499,1954
15503,1949
15507,1943
15511,1943
15515,1959
15519,1967
15523,1973
15527,1931
15531,1995
15535,1967
15539,1950
15543,1955
15547,1959
15551,1975
15555,1984
15559,1968
15563,1943
15567,1958
15571,1982
15575,1999
15579,1968
15583,1979
15587,1974
15591,1968
15595,1969
15599,1971
15603,1986
15607,1980
15611,1977
15615,1982
15619,1985
15623,1967
15627,1974
15631,1977
15635,1993
15639,2015
15643,2029
15647,2035
15651,2054
15655,2064
15659,2059
15663,2058
15667,2064
15671,2064
15675,2027
15679,2009
15683,2000
15687,1988
15691,1983
15695,1986
15699,1984
15703,1991
15707,1990
15711,1981
15715,1982
15719,1983
15723,1975
15727,1973
15731,1983
15735,1986
15739,1985
15743,1984
15747,1990
15751,1995
15755,1955
15759,1871
15763,1817
15767,1890
15771,2150
15775,2559
15779,3140
15783,3729
15787,3610
15791,3063
15795,2519
15799,2115
15803,1968
15807,1952
15811,1970
15815,1985
15819,1995
15823,1972
15827,1958
15831,1951
15835,1950
15839,1943
15843,1927
15847,1927
15851,1939
15855,1942
15859,1938
15863,1945
15867,1951
15871,1949
15875,1954
15879,1946
15883,1964
15887,1968
15891,1957
15895,1958
15899,1969
15903,1981
15907,1975
15911,1981
15915,1983
15919,1997
15923,1994
15927,1994
15931,2007
15935,2027
15939,2027
15943,2017
15947,2030
15951,2039
15955,2063
15959,2062
15963,2066
15967,2077
15971,2077
15975,2074
15979,2090
15983,2109
15987,2125
15991,2128
15995,2129
15999,2131
16003,2147
16007,2164
16011,2166
16015,2173
16019,2176
16023,2177
16027,2183
16031,2192
16035,2205
16039,2195
16043,2192
16047,2190
16051,2192
16055,2178
16059,2143
16063,2109
16067,2095
16071,2038
16075,2002
16079,1969
16083,1955
16087,1935
16091,1907
16095,1876
16099,1871
16103,1860
16107,1861
16111,1847
16115,1847
16119,1850
16123,1841
16127,1842
16131,1840
16135,1843
16139,1839
16143,1840
16147,1839
16151,1853
16155,1860
16159,1859
16163,1853
16167,1856
16171,1860
16175,1862
16179,1858
16183,1872
16187,1873
16191,1872
16195,1867
16199,1872
16203,1877
16207,1869
16211,1872
16215,1878
16219,1879
16223,1880
16227,1875
16231,1879
16235,1895
16239,1889
16243,1872
16247,1879
16251,1885
16255,1878
16259,1872
16263,1877
16267,1877
16271,1886
16275,1875
16279,1877
16283,1886
16287,1890
16291,1878
16295,1875
16299,1881
16303,1888
16307,1889
16311,1875
16315,1885
16319,1894
16323,1885
16327,1886
16331,1888
16335,1891
16339,1898
16343,1887
16347,1881
16351,1894
16355,1902
16359,1898
16363,1903
16367,1904
16371,1909
16375,1904
16379,1901
16383,1891
16387,1919
16391,1909
16395,1904
16399,1909
16403,1921
16407,1905
16411,1901
16415,1899
16419,1911
16423,1909
16427,1901
16431,1904
16435,1921
16439,1909
16443,1906
16447,1927
16451,1913
16455,1923
16459,1903
16463,1904
16467,1881
16471,1920
16475,1943
16479,1908
16483,1883
16487,1949
16491,1921
16495,1886
16499,1930
16503,1931
16507,1929
16511,1921
16515,1926
16519,1931
16523,1930
16527,1947
16531,1920
16535,1930
16539,1923
16543,1924
16547,1930
16551,1939
16555,1950
16559,1939
16563,1936
16567,1949
16571,1951
16575,1940
16579,1947
16583,1955
16587,1954
16591,1954
16595,1955
16599,1962
16603,1968
16607,1983
16611,1986
16615,1991
16619,2001
16623,2010
16627,2000
16631,2006
16635,2011
16639,1998
16643,1973
16647,1963
16651,1957
16655,1945
16659,1945
16663,1937
16667,1949
16671,1951
16675,1939
16679,1950
16683,1954
16687,1961
16691,1955
16695,1945
16699,1955
16703,1968
16707,1966
16711,1962
16715,1943
16719,1898
16723,1801
16727,1751
16731,1887
16735,2278
16739,2838
16743,3574
16747,4095
16751,3936
16755,3201
16759,2567
16763,2133
16767,1967
16771,1950
16775,1962
16779,1962
16783,1950
16787,1930
16791,1901
16795,1875
16799,1874
16803,1882
16807,1875
16811,1858
16815,1873
16819,1881
16823,1882
16827,1872
16831,1871
16835,1888
16839,1895
16843,1888
16847,1893
16851,1906
16855,1904
16859,1905
16863,1906
16867,1914
16871,1925
16875,1932
16879,1935
16883,1942
16887,1945
16891,1946
16895,1952
16899,1967
16903,1973
16907,1972
16911,1968
16915,1978
16919,1989
16923,1995
16927,1994
16931,1999
16935,2015
16939,2022
16943,2010
16947,2029
16951,2054
16955,2078
16959,2073
16963,2092
16967,2107
16971,2127
16975,2129
16979,2134
16983,2154
16987,2163
16991,2171
16995,2171
16999,2184
17003,2198
17007,2195
17011,2193
17015,2192
17019,2183
17023,2157
17027,2112
17031,2078
17035,2054
17039,2004
17043,1968
17047,1933
17051,1914
17055,1885
17059,1868
17063,1842
17067,1840
17071,1840
17075,1831
17079,1824
17083,1830
17087,1836
17091,1824
17095,1819
17099,1830
17103,1840
17107,1843
17111,1841
17115,1841
17119,1849
17123,1840
17127,1842
17131,1841
17135,1849
17139,1854
17143,1857
17147,1856
17151,1856
17155,1870
17159,1854
17163,1850
17167,1861
17171,1869
17175,1846
17179,1851
17183,1856
17187,1869
17191,1867
17195,1859
17199,1868
17203,1871
17207,1875
17211,1860
17215,1870
17219,1875
17223,1873
17227,1873
17231,1873
17235,1883
17239,1885
17243,1867
17247,1866
17251,1875
17255,1889
17259,1878
17263,1877
17267,1886
17271,1891
17275,1887
17279,1883
17283,1897
17287,1891
17291,1886
17295,1879
17299,1886
17303,1888
17307,1883
17311,1884
17315,1893
17319,1902
17323,1904
17327,1903
17331,1904
17335,1908
17339,1904
17343,1894
17347,1899
17351,1900
17355,1935
17359,1902
17363,1898
17367,1893
17371,1909
17375,1903
17379,1907
17383,1923
17387,1962
17391,1916
17395,1907
17399,1911
17403,1907
17407,1917
17411,1903
17415,1919
17419,1934
17423,1934
17427,1923
17431,1932
17435,1936
17439,1936
17443,1927
17447,1934
17451,1942
17455,1936
17459,1936
17463,1938
17467,1939
17471,1946
17475,1937
17479,1949
17483,1950
17487,1958
17491,1950
17495,1947
17499,1952
17503,1962
17507,1957
17511,1945
17515,1961
17519,1959
17523,1967
17527,1958
17531,1952
17535,1967
17539,1965
17543,1968
17547,1955
17551,1970
17555,1973
17559,1959
17563,1958
17567,1968
17571,1971
17575,1973
17579,1958
17583,1968
17587,1981
17591,1984
17595,1969
17599,1970
17603,1984
17607,1978
17611,1968
17615,1971
17619,1985
17623,1977
17627,1972
17631,1978
17635,1986
17639,1983
17643,1978
17647,1999
17651,2025
17655,2035
17659,2021
17663,2023
17667,2046
17671,2055
17675,2039
17679,2015
17683,2014
17687,2003
17691,1978
17695,1961
17699,1968
17703,1974
17707,1972
17711,1967
17715,1970
17719,1979
17723,1982
17727,1961
17731,1968
17735,1971
17739,1977
17743,1966
17747,1968
17751,1981
17755,1973
17759,1918
17763,1810
17767,1744
17771,1863
17775,2268
17779,2912
17783,3866
17787,4095
17791,4095
17795,3999
17799,3099
17803,2445
17807,2096
17811,1970
17815,1968
17819,1965
17823,1947
17827,1915
17831,1892
17835,1888
17839,1875
17843,1867
17847,1845
17851,1849
17855,1856
17859,1847
17863,1856
17867,1863
17871,1860
17875,1855
17879,1861
17883,1866
17887,1889
17891,1882
17895,1889
17899,1895
17903,1901
17907,1904
17911,1895
17915,1902
17919,1910
17923,1915
17927,1917
17931,1921
17935,1934
17939,1938
17943,1936
17947,1939
17951,1936
17955,1951
17959,1948
17963,1967
17967,1969
17971,1983
17975,1982
17979,1989
17983,2007
17987,2021
17991,2030
17995,2032
17999,2047
18003,2071
18007,2081
18011,2093
18015,2111
18019,2122
18023,2131
18027,2138
18031,2149
18035,2163
18039,2177
18043,2179
18047,2191
18051,2193
18055,2195
18059,2177
18063,2159
18067,2134
18071,2112
18075,2063
18079,2015
18083,1981
18087,1959
18091,1927
18095,1891
18099,1872
18103,1859
18107,1851
18111,1826
18115,1829
18119,1835
18123,1826
18127,1820
18131,1815
18135,1831
18139,1837
18143,1831
18147,1825
18151,1844
18155,1844
18159,1840
18163,1839
18167,1843
18171,1846
18175,1844
18179,1836
18183,1836
18187,1849
18191,1853
18195,1845
18199,1847
18203,1871
18207,1863
18211,1857
18215,1855
18219,1856
18223,1855
18227,1849
18231,1853
18235,1865
18239,1868
18243,1851
18247,1853
18251,1864
18255,1867
18259,1855
18263,1859
18267,1870
18271,1867
18275,1866
18279,1856
18283,1870
18287,1877
18291,1881
18295,1872
18299,1876
18303,1883
18307,1859
18311,1872
18315,1876
18319,1888
18323,1887
18327,1872
18331,1873
18335,1883
18339,1890
18343,1885
18347,1882
18351,1880
18355,1865
18359,1886
18363,1887
18367,1885
18371,1898
18375,1894
18379,1893
18383,1899
18387,1901
18391,1903
18395,1892
18399,1904
18403,1911
18407,1911
18411,1900
18415,1902
18419,1908
18423,1915
18427,1904
18431,1908
18435,1915
18439,1921
18443,1909
18447,1905
18451,1919
18455,1919
18459,1910
18463,1913
18467,1920
18471,1929
18475,1930
18479,1930
18483,1934
18487,1936
18491,1936
18495,1936
18499,1930
18503,1938
18507,1939
18511,1932
18515,1930
18519,1936
18523,1949
18527,1931
18531,1939
18535,1942
18539,1952
18543,1938
18547,1941
18551,1953
18555,1960
18559,1952
18563,1940
18567,1943
18571,1962
18575,1948
18579,1942
18583,1952
18587,1963
18591,1955
18595,1949
18599,1953
18603,1969
18607,1963
18611,1953
18615,1958
18619,1971
18623,1967
18627,1962
18631,1968
18635,1972
18639,1972
18643,1968
18647,1969
18651,1975
18655,1971
18659,1970
18663,1968
18667,1975
18671,1989
18675,1977
18679,1979
18683,1977
18687,2000
18691,2032
18695,2027
18699,2031
18703,2046
18707,2054
18711,2039
18715,2031
18719,2021
18723,2015
18727,2000
18731,1984
18735,1978
18739,1977
18743,1972
18747,1967
18751,1972
18755,1981
18759,1975
18763,1968
18767,1974
18771,1973
18775,1968
18779,1964
18783,1971
18787,1975
18791,1977
18795,1962
18799,1915
18803,1815
18807,1734
18811,1814
18815,2205
18819,2855
18823,3842
18827,4095
18831,4095
18835,4095
18839,3169
18843,2469
18847,2096
18851,1981
18855,1969
18859,1965
18863,1943
18867,1921
18871,1903
18875,1875
18879,1854
18883,1855
18887,1851
18891,1854
18895,1840
18899,1854
18903,1863
18907,1859
18911,1861
18915,1858
18919,1875
18923,1878
18927,1872
18931,1870
18935,1875
18939,1889
18943,1891
18947,1889
18951,1900
18955,1906
18959,1904
18963,1916
18967,1919
18971,1933
18975,1936
18979,1927
18983,1936
18987,1941
18991,1952
18995,1952
18999,1959
19003,1975
19007,1975
19011,1979
19015,1993
19019,2005
19023,2018
19027,2021
19031,2027
19035,2041
19039,2070
19043,2081
19047,2095
19051,2112
19055,2130
19059,2128
19063,2139
19067,2163
19071,2174
19075,2177
19079,2182
19083,2181
19087,2201
19091,2206
19095,2199
19099,2192
19103,2177
19107,2148
19111,2109
19115,2071
19119,2039
19123,1991
19127,1947
19131,1910
19135,1897
19139,1877
19143,1851
19147,1837
19151,1825
19155,1822
19159,1818
19163,1810
19167,1821
19171,1825
19175,1819
19179,1879
19183,1827
19187,1839
19191,1835
19195,1828
19199,1826
19203,1837
19207,1843
19211,1842
19215,1866
19219,1842
19223,1842
19227,1869
19231,1844
19235,1856
19239,1861
19243,1854
19247,1859
19251,1862
19255,1870
19259,1858
19263,1841
19267,1871
19271,1863
19275,1867
19279,1861
19283,1873
19287,1873
19291,1866
19295,1870
19299,1871
19303,1884
19307,1879
19311,1866
19315,1873
19319,1882
19323,1879
19327,1878
19331,1879
19335,1879
19339,1901
19343,1883
19347,1879
19351,1881
19355,1886
19359,1891
19363,1878
19367,1884
19371,1899
19375,1890
19379,1887
19383,1897
19387,1897
19391,1899
19395,1889
19399,1894
19403,1903
19407,1904
19411,1895
19415,1894
19419,1901
19423,1904
19427,1899
19431,1904
19435,1908
19439,1916
19443,1901
19447,1899
19451,1905
19455,1912
19459,1917
19463,1906
19467,1921
19471,1929
19475,1921
19479,1915
19483,1919
19487,1929
19491,1927
19495,1927
19499,1936
19503,1936
19507,1933
19511,1927
19515,1936
19519,1943
19523,1938
19527,1931
19531,1922
19535,1935
19539,1936
19543,1927
19547,1936
19551,1936
19555,1951
19559,1939
19563,1936
19567,1936
19571,1950
19575,1949
19579,1936
19583,1945
19587,1954
19591,1957
19595,1954
19599,1954
19603,1963
19607,1966
19611,1954
19615,1961
19619,1957
19623,1955
19627,1948
19631,1950
19635,1965
19639,1967
19643,1966
19647,1951
19651,1966
19655,1969
19659,1967
19663,1961
19667,1967
19671,1970
19675,1968
19679,1967
19683,1968
19687,1981
19691,1981
19695,1968
19699,1963
19703,1986
19707,2015
19711,2032
19715,2033
19719,2047
19723,2064
19727,2043
19731,2037
19735,2029
19739,2019
19743,2010
19747,1991
19751,1984
19755,1968
19759,1959
19763,1962
19767,1968
19771,1982
19775,1975
19779,1974
19783,1977
19787,1978
19791,1973
19795,1968
19799,1968
19803,1981
19807,1978
19811,1963
19815,1934
19819,1846
19823,1767
19827,1792
19831,2094
19835,2663
19839,3473
19843,4095
19847,4095
19851,4095
19855,3183
19859,2481
19863,2109
19867,1983
19871,1971
19875,1976
19879,1961
19883,1943
19887,1920
19891,1905
19895,1882
19899,1873
19903,1872
19907,1872
19911,1869
19915,1861
19919,1872
19923,1879
19927,1871
19931,1869
19935,1879
19939,1884
19943,1884
19947,1874
19951,1895
19955,1907
19959,1904
19963,1895
19967,1910
19971,1920
19975,1926
19979,1922
19983,1935
19987,1946
19991,1946
19995,1947
