Timestamp,ECG Data
4,1987
7,1987
11,1989
15,1982
19,1959
23,1941
27,1949
31,1951
35,1942
39,1927
43,1936
47,1946
51,1952
55,1949
59,1946
63,1947
67,1946
71,1939
75,1952
79,1961
83,1946
87,1946
91,1936
95,1886
99,1808
103,1799
107,1970
111,2343
115,2837
119,3463
123,3776
127,3359
131,2813
135,2294
139,1995
143,1916
147,1932
151,1947
155,1955
159,1937
163,1933
167,1923
171,1914
175,1907
179,1916
183,1917
187,1907
191,1914
195,1915
199,1925
203,1925
207,1918
211,1931
215,1936
219,1933
223,1941
227,1943
231,1936
235,1941
239,1947
243,1967
247,1965
251,1963
255,1968
259,1968
263,1987
267,1987
271,1994
275,2002
279,2007
283,2010
287,2014
291,2033
295,2033
299,2055
303,2043
307,2061
311,2081
315,2096
319,2096
323,2109
327,2129
331,2143
335,2141
339,2155
343,2177
347,2190
351,2195
355,2203
359,2213
363,2213
367,2214
371,2220
375,2233
379,2231
383,2239
387,2222
391,2204
395,2193
399,2176
403,2133
407,2096
411,2055
415,2018
419,1975
423,1943
427,1919
431,1898
435,1872
439,1862
443,1856
447,1849
451,1841
455,1837
459,1837
463,1840
467,1843
471,1840
475,1840
479,1844
483,1840
487,1837
491,1844
495,1852
499,1840
503,1835
507,1852
511,1858
515,1859
519,1856
523,1863
527,1874
531,1872
535,1866
539,1863
543,1877
547,1874
551,1870
555,1865
559,1872
563,1882
567,1877
571,1872
575,1876
579,1894
583,1879
587,1873
591,1875
595,1876
599,1878
603,1879
607,1873
611,1873
615,1874
619,1870
623,1878
627,1891
631,1891
635,1886
639,1876
643,1882
647,1888
651,1879
655,1886
659,1885
663,1890
667,1884
671,1885
675,1890
679,1892
683,1893
687,1885
691,1891
695,1889
699,1897
703,1904
707,1923
711,1946
715,1961
719,1955
723,1968
727,1973
731,1973
735,1955
739,1947
743,1934
747,1922
751,1904
755,1898
759,1901
763,1913
767,1905
771,1891
775,1902
779,1904
783,1903
787,1901
791,1904
795,1904
799,1914
803,1900
807,1906
811,1917
815,1910
819,1909
823,1904
827,1887
831,1817
835,1743
839,1781
843,2032
847,2442
851,2988
855,3635
859,3751
863,3255
867,2689
871,2190
875,1936
879,1887
883,1904
887,1919
891,1923
895,1910
899,1895
903,1881
907,1873
911,1879
915,1872
919,1865
923,1863
927,1868
931,1871
935,1876
939,1881
943,1884
947,1894
951,1899
955,1899
959,1906
963,1909
967,1898
971,1904
975,1914
979,1921
983,1924
987,1933
991,1936
995,1942
999,1950
1003,1951
1007,1967
1011,1977
1015,1985
1019,1975
1023,1989
1027,2003
1031,2011
1035,2015
1039,2018
1043,2037
1047,2043
1051,2057
1055,2067
1059,2092
1063,2102
1067,2114
1071,2126
1075,2147
1079,2173
1083,2179
1087,2187
1091,2195
1095,2210
1099,2221
1103,2219
1107,2229
1111,2240
1115,2241
1119,2256
1123,2215
1127,2202
1131,2183
1135,2127
1139,2091
1143,2063
1147,2010
1151,1975
1155,1943
1159,1933
1163,1910
1167,1869
1171,1829
1175,1829
1179,1829
1183,1822
1187,1823
1191,1818
1195,1818
1199,1811
1203,1807
1207,1808
1211,1822
1215,1825
1219,1815
1223,1821
1227,1831
1231,1838
1235,1826
1239,1820
1243,1833
1247,1830
1251,1829
1255,1840
1259,1842
1263,1843
1267,1841
1271,1840
1275,1846
1279,1854
1283,1853
1287,1846
1291,1851
1295,1858
1299,1858
1303,1852
1307,1858
1311,1872
1315,1872
1319,1856
1323,1856
1327,1869
1331,1857
1335,1856
1339,1856
1343,1861
1347,1863
1351,1861
1355,1859
1359,1872
1363,1870
1367,1865
1371,1856
1375,1869
1379,1874
1383,1869
1387,1870
1391,1872
1395,1885
1399,1873
1403,1875
1407,1869
1411,1874
1415,1872
1419,1872
1423,1877
1427,1883
1431,1887
1435,1877
1439,1887
1443,1901
1447,1904
1451,1892
1455,1895
1459,1893
1463,1894
1467,1893
1471,1897
1475,1893
1479,1903
1483,1904
1487,1897
1491,1904
1495,1904
1499,1906
1503,1908
1507,1911
1511,1904
1515,1911
1519,1904
1523,1907
1527,1913
1531,1919
1535,1914
1539,1917
1543,1923
1547,1927
1551,1929
1555,1925
1559,1924
1563,1936
1567,1931
1571,1942
1575,1941
1579,1939
1583,1936
1587,1936
1591,1964
1595,1987
1599,1994
1603,1994
1607,2006
1611,2012
1615,2010
1619,1993
1623,1989
1627,1981
1631,1969
1635,1955
1639,1939
1643,1941
1647,1938
1651,1940
1655,1945
1659,1951
1663,1953
1667,1945
1671,1938
1675,1946
1679,1962
1683,1949
1687,1943
1691,1948
1695,1959
1699,1963
1703,1968
1707,1968
1711,1927
1715,1840
1719,1747
1723,1814
1727,2166
1731,2736
1735,3486
1739,4095
1743,4095
1747,3869
1751,3040
1755,2415
1759,2066
1763,1966
1767,1938
1771,1940
1775,1927
1779,1913
1783,1883
1787,1856
1791,1855
1795,1856
1799,1855
1803,1853
1807,1851
1811,1859
1815,1872
1819,1861
1823,1868
1827,1877
1831,1888
1835,1881
1839,1877
1843,1894
1847,1900
1851,1895
1855,1890
1859,1901
1863,1913
1867,1907
1871,1914
1875,1920
1879,1931
1883,1931
1887,1935
1891,1936
1895,1939
1899,1950
1903,1949
1907,1959
1911,1981
1915,1987
1919,1982
1923,1987
1927,2003
1931,2010
1935,2017
1939,2032
1943,2062
1947,2069
1951,2071
1955,2095
1959,2112
1963,2130
1967,2143
1971,2157
1975,2173
1979,2191
1983,2195
1987,2208
1991,2217
1995,2226
1999,2229
2003,2227
2007,2229
2011,2234
2015,2218
2019,2184
2023,2154
2027,2126
2031,2091
2035,2032
2039,1992
2043,1962
2047,1927
2051,1891
2055,1873
2059,1871
2063,1866
2067,1849
2071,1838
2075,1840
2079,1840
2083,1842
2087,1839
2091,1837
2095,1849
2099,1846
2103,1839
2107,1840
2111,1840
2115,1840
2119,1839
2123,1843
2127,1850
2131,1851
2135,1852
2139,1845
2143,1858
2147,1853
2151,1845
2155,1842
2159,1852
2163,1862
2167,1859
2171,1862
2175,1865
2179,1866
2183,1862
2187,1855
2191,1854
2195,1866
2199,1860
2203,1857
2207,1862
2211,1867
2215,1866
2219,1863
2223,1870
2227,1875
2231,1877
2235,1867
2239,1865
2243,1873
2247,1875
2251,1871
2255,1867
2259,1883
2263,1873
2267,1881
2271,1877
2275,1882
2279,1882
2283,1878
2287,1877
2291,1879
2295,1889
2299,1883
2303,1885
2307,1881
2311,1895
2315,1888
2319,1875
2323,1886
2327,1898
2331,1889
2335,1887
2339,1887
2343,1892
2347,1898
2351,1899
2355,1895
2359,1904
2363,1914
2367,1904
2371,1899
2375,1910
2379,1914
2383,1904
2387,1898
2391,1915
2395,1910
2399,1914
2403,1907
2407,1914
2411,1920
2415,1917
2419,1909
2423,1921
2427,1917
2431,1915
2435,1911
2439,1911
2443,1921
2447,1930
2451,1925
2455,1925
2459,1931
2463,1933
2467,1925
2471,1925
2475,1933
2479,1942
2483,1934
2487,1923
2491,1933
2495,1939
2499,1938
2503,1925
2507,1931
2511,1942
2515,1938
2519,1941
2523,1942
2527,1946
2531,1941
2535,1936
2539,1947
2543,1953
2547,1953
2551,1947
2555,1943
2559,1951
2563,1957
2567,1952
2571,1945
2575,1950
2579,1962
2583,1966
2587,1954
2591,1957
2595,1961
2599,1959
2603,1975
2607,1994
2611,2011
2615,2026
2619,2022
2623,2030
2627,2031
2631,2030
2635,2006
2639,2000
2643,1994
2647,1985
2651,1961
2655,1949
2659,1952
2663,1954
2667,1962
2671,1955
2675,1959
2679,1962
2683,1961
2687,1950
2691,1952
2695,1958
2699,1959
2703,1943
2707,1954
2711,1965
2715,1963
2719,1953
2723,1905
2727,1803
2731,1701
2735,1774
2739,2170
2743,2838
2747,3837
2751,4095
2755,4095
2759,4095
2763,3616
2767,2734
2771,2193
2775,1984
2779,1947
2783,1938
2787,1919
2791,1904
2795,1883
2799,1859
2803,1842
2807,1840
2811,1839
2815,1837
2819,1826
2823,1833
2827,1834
2831,1838
2835,1826
2839,1837
2843,1845
2847,1854
2851,1847
2855,1855
2859,1861
2863,1867
2867,1866
2871,1868
2875,1873
2879,1882
2883,1885
2887,1887
2891,1904
2895,1907
2899,1904
2903,1905
2907,1915
2911,1930
2915,1937
2919,1935
2923,1939
2927,1951
2931,1955
2935,1955
2939,1975
2943,1991
2947,2000
2951,2001
2955,2022
2959,2039
2963,2068
2967,2080
2971,2094
2975,2109
2979,2124
2983,2138
2987,2150
2991,2165
2995,2186
2999,2193
3003,2208
3007,2219
3011,2237
3015,2243
3019,2238
3023,2239
3027,2227
3031,2202
3035,2165
3039,2130
3043,2110
3047,2062
3051,2017
3055,1978
3059,1947
3063,1911
3067,1877
3071,1865
3075,1856
3079,1862
3083,1841
3087,1827
3091,1837
3095,1838
3099,1826
3103,1819
3107,1821
3111,1831
3115,1828
3119,1823
3123,1825
3127,1840
3131,1838
3135,1830
3139,1835
3143,1845
3147,1847
3151,1841
3155,1840
3159,1853
3163,1853
3167,1844
3171,1850
3175,1856
3179,1856
3183,1853
3187,1847
3191,1858
3195,1861
3199,1858
3203,1865
3207,1863
3211,1866
3215,1861
3219,1859
3223,1871
3227,1872
3231,1872
3235,1870
3239,1870
3243,1875
3247,1872
3251,1859
3255,1871
3259,1876
3263,1873
3267,1872
3271,1872
3275,1872
3279,1881
3283,1875
3287,1878
3291,1883
3295,1881
3299,1883
3303,1881
3307,1884
3311,1892
3315,1891
3319,1883
3323,1883
3327,1890
3331,1897
3335,1895
3339,1890
3343,1904
3347,1903
3351,1895
3355,1904
3359,1903
3363,1907
3367,1903
3371,1898
3375,1919
3379,1918
3383,1910
3387,1909
3391,1914
3395,1922
3399,1919
3403,1918
3407,1927
3411,1938
3415,1937
3419,1933
3423,1926
3427,1933
3431,1926
3435,1930
3439,1931
3443,1936
3447,1938
3451,1933
3455,1937
3459,1938
3463,1947
3467,1935
3471,1936
3475,1938
3479,1942
3483,1945
3487,1943
3491,1950
3495,1949
3499,1950
3503,1946
3507,1950
3511,1955
3515,1959
3519,1950
3523,1957
3527,1959
3531,1967
3535,1958
3539,1965
3543,1967
3547,1973
3551,1964
3555,1957
3559,1958
3563,1958
3567,1956
3571,1958
3575,1971
3579,1975
3583,1961
3587,1958
3591,1967
3595,1969
3599,1981
3603,1983
3607,1979
3611,1977
3615,1987
3619,2011
3623,2030
3627,2034
3631,2038
3635,2043
3639,2041
3643,2047
3647,2035
3651,2018
3655,1999
3659,1997
3663,1983
3667,1957
3671,1951
3675,1957
3679,1970
3683,1969
3687,1964
3691,1968
3695,1971
3699,1968
3703,1963
3707,1970
3711,1968
3715,1968
3719,1962
3723,1965
3727,1969
3731,1967
3735,1903
3739,1794
3743,1707
3747,1781
3751,2170
3755,2827
3759,3827
3763,4095
3767,4095
3771,4095
3775,3545
3779,2699
3783,2187
3787,1978
3791,1945
3795,1953
3799,1943
3803,1911
3807,1891
3811,1872
3815,1861
3819,1838
3823,1839
3827,1841
3831,1839
3835,1837
3839,1840
3843,1842
3847,1853
3851,1846
3855,1856
3859,1858
3863,1870
3867,1866
3871,1872
3875,1885
3879,1893
3883,1887
3887,1890
3891,1904
3895,1898
3899,1902
3903,1904
3907,1904
3911,1921
3915,1929
3919,1920
3923,1935
3927,1942
3931,1954
3935,1953
3939,1968
3943,1978
3947,1983
3951,1984
3955,1991
3959,2014
3963,2031
3967,2038
3971,2054
3975,2074
3979,2096
3983,2102
3987,2113
3991,2128
3995,2153
3999,2160
4003,2166
4007,2181
4011,2198
4015,2210
4019,2206
4023,2224
4027,2237
4031,2235
4035,2224
4039,2213
4043,2192
4047,2160
4051,2117
4055,2077
4059,2045
4063,2003
4067,1963
4071,1921
4075,1895
4079,1870
4083,1856
4087,1840
4091,1833
4095,1833
4099,1824
4103,1813
4107,1814
4111,1817
4115,1815
4119,1810
4123,1815
4127,1818
4131,1823
4135,1819
4139,1811
4143,1815
4147,1827
4151,1812
4155,1821
4159,1830
4163,1843
4167,1838
4171,1842
4175,1847
4179,1851
4183,1841
4187,1806
4191,1837
4195,1837
4199,1847
4203,1846
4207,1845
4211,1861
4215,1858
4219,1847
4223,1859
4227,1869
4231,1872
4235,1856
4239,1894
4243,1870
4247,1865
4251,1857
4255,1858
4259,1865
4263,1875
4267,1866
4271,1862
4275,1871
4279,1872
4283,1873
4287,1872
4291,1882
4295,1888
4299,1879
4303,1873
4307,1874
4311,1883
4315,1887
4319,1872
4323,1878
4327,1886
4331,1884
4335,1874
4339,1883
4343,1902
4347,1903
4351,1898
4355,1889
4359,1899
4363,1904
4367,1897
4371,1895
4375,1903
4379,1903
4383,1898
4387,1895
4391,1904
4395,1906
4399,1909
4403,1899
4407,1908
4411,1914
4415,1903
4419,1901
4423,1904
4427,1915
4431,1919
4435,1906
4439,1920
4443,1921
4447,1915
4451,1919
4455,1906
4459,1925
4463,1929
4467,1917
4471,1921
4475,1936
4479,1945
4483,1936
4487,1932
4491,1934
4495,1936
4499,1936
4503,1927
4507,1936
4511,1936
4515,1941
4519,1938
4523,1937
4527,1948
4531,1936
4535,1939
4539,1947
4543,1950
4547,1954
4551,1950
4555,1943
4559,1953
4563,1955
4567,1949
4571,1951
4575,1963
4579,1958
4583,1957
4587,1956
4591,1967
4595,1971
4599,1968
4603,1969
4607,1984
4611,2002
4615,2029
4619,2030
4623,2037
4627,2045
4631,2054
4635,2032
4639,2022
4643,2011
4647,2006
4651,1982
4655,1968
4659,1960
4663,1957
4667,1957
4671,1947
4675,1958
4679,1970
4683,1965
4687,1959
4691,1966
4695,1968
4699,1964
4703,1958
4707,1967
4711,1969
4715,1968
4719,1967
4723,1936
4727,1855
4731,1753
4735,1763
4739,2027
4743,2570
4747,3319
4751,4095
4755,4095
4759,4095
4763,3283
4767,2547
4771,2125
4775,1980
4779,1968
4783,1963
4787,1948
4791,1935
4795,1910
4799,1888
4803,1870
4807,1867
4811,1872
4815,1861
4819,1861
4823,1857
4827,1870
4831,1875
4835,1873
4839,1877
4843,1883
4847,1893
4851,1886
4855,1882
4859,1895
4863,1905
4867,1902
4871,1904
4875,1918
4879,1929
4883,1929
4887,1918
4891,1936
4895,1943
4899,1947
4903,1947
4907,1955
4911,1967
4915,1967
4919,1968
4923,1986
4927,1987
4931,1994
4935,1999
4939,2009
4943,2032
4947,2043
4951,2043
4955,2064
4959,2081
4963,2090
4967,2098
4971,2117
4975,2138
4979,2158
4983,2160
4987,2176
4991,2195
4995,2206
4999,2211
5003,2214
5007,2224
5011,2238
5015,2239
5019,2233
5023,2237
5027,2226
5031,2204
5035,2161
5039,2133
5043,2096
5047,2063
5051,2005
5055,1966
5059,1929
5063,1903
5067,1874
5071,1858
5075,1851
5079,1849
5083,1841
5087,1824
5091,1827
5095,1834
5099,1824
5103,1835
5107,1831
5111,1839
5115,1836
5119,1831
5123,1839
5127,1840
5131,1843
5135,1837
5139,1872
5143,1851
5147,1863
5151,1833
5155,1854
5159,1857
5163,1857
5167,1858
5171,1856
5175,1854
5179,1853
5183,1861
5187,1857
5191,1857
5195,1872
5199,1867
5203,1866
5207,1867
5211,1873
5215,1862
5219,1866
5223,1874
5227,1883
5231,1884
5235,1866
5239,1872
5243,1872
5247,1870
5251,1863
5255,1865
5259,1867
5263,1872
5267,1872
5271,1870
5275,1876
5279,1885
5283,1872
5287,1873
5291,1871
5295,1883
5299,1876
5303,1875
5307,1882
5311,1883
5315,1889
5319,1886
5323,1881
5327,1885
5331,1879
5335,1877
5339,1881
5343,1890
5347,1901
5351,1891
5355,1889
5359,1904
5363,1905
5367,1902
5371,1907
5375,1904
5379,1910
5383,1901
5387,1903
5391,1906
5395,1918
5399,1917
5403,1905
5407,1907
5411,1920
5415,1917
5419,1915
5423,1913
5427,1920
5431,1923
5435,1915
5439,1908
5443,1924
5447,1936
5451,1932
5455,1920
5459,1931
5463,1939
5467,1933
5471,1928
5475,1929
5479,1937
5483,1939
5487,1932
5491,1936
5495,1951
5499,1937
5503,1936
5507,1938
5511,1950
5515,1952
5519,1939
5523,1941
5527,1943
5531,1954
5535,1949
5539,1951
5543,1955
5547,1959
5551,1958
5555,1962
5559,1968
5563,1963
5567,1959
5571,1957
5575,1968
5579,1973
5583,1972
5587,1969
5591,1969
5595,1988
5599,2007
5603,2020
5607,2032
5611,2047
5615,2057
5619,2046
5623,2023
5627,2018
5631,2001
5635,1993
5639,1983
5643,1976
5647,1961
5651,1950
5655,1957
5659,1968
5663,1968
5667,1962
5671,1961
5675,1969
5679,1973
5683,1971
5687,1969
5691,1984
5695,1989
5699,1984
5703,1978
5707,1968
5711,1931
5715,1853
5719,1776
5723,1851
5727,2147
5731,2635
5735,3264
5739,4037
5743,3981
5747,3299
5751,2657
5755,2174
5759,1982
5763,1950
5767,1963
5771,1968
5775,1968
5779,1943
5783,1924
5787,1908
5791,1905
5795,1917
5799,1901
5803,1898
5807,1889
5811,1903
5815,1904
5819,1904
5823,1904
5827,1918
5831,1921
5835,1912
5839,1918
5843,1931
5847,1927
5851,1936
5855,1942
5859,1956
5863,1958
5867,1951
5871,1946
5875,1953
5879,1968
5883,1968
5887,1968
5891,1984
5895,2000
5899,2001
5903,2003
5907,2005
5911,2017
5915,2027
5919,2027
5923,2039
5927,2059
5931,2069
5935,2058
5939,2083
5943,2109
5947,2120
5951,2128
5955,2138
5959,2154
5963,2161
5967,2177
5971,2186
5975,2201
5979,2213
5983,2211
5987,2216
5991,2224
5995,2238
5999,2235
6003,2224
6007,2224
6011,2225
6015,2213
6019,2188
6023,2155
6027,2118
6031,2086
6035,2033
6039,2007
6043,1973
6047,1953
6051,1914
6055,1899
6059,1889
6063,1872
6067,1867
6071,1891
6075,1858
6079,1853
6083,1846
6087,1839
6091,1843
6095,1850
6099,1847
6103,1843
6107,1847
6111,1853
6115,1856
6119,1856
6123,1849
6127,1870
6131,1869
6135,1871
6139,1872
6143,1872
6147,1865
6151,1873
6155,1872
6159,1891
6163,1896
6167,1887
6171,1879
6175,1888
6179,1895
6183,1887
6187,1887
6191,1882
6195,1897
6199,1886
6203,1890
6207,1888
6211,1889
6215,1892
6219,1887
6223,1888
6227,1903
6231,1899
6235,1887
6239,1886
6243,1897
6247,1897
6251,1890
6255,1893
6259,1902
6263,1890
6267,1887
6271,1882
6275,1886
6279,1902
6283,1903
6287,1903
6291,1905
6295,1917
6299,1907
6303,1899
6307,1909
6311,1919
6315,1917
6319,1920
6323,1915
6327,1921
6331,1927
6335,1922
6339,1922
6343,1921
6347,1918
6351,1913
6355,1917
6359,1930
6363,1930
6367,1920
6371,1922
6375,1935
6379,1938
6383,1938
6387,1920
6391,1925
6395,1935
6399,1936
6403,1930
6407,1934
6411,1942
6415,1937
6419,1933
6423,1937
6427,1947
6431,1936
6435,1941
6439,1947
6443,1947
6447,1947
6451,1947
6455,1936
6459,1950
6463,1965
6467,1961
6471,1959
6475,1962
6479,1970
6483,1978
6487,1994
6491,2006
6495,2017
6499,2016
6503,2023
6507,2031
6511,2033
6515,2016
6519,1997
6523,1994
6527,1982
6531,1966
6535,1945
6539,1947
6543,1963
6547,1968
6551,1962
6555,1963
6559,1956
6563,1953
6567,1947
6571,1955
6575,1966
6579,1961
6583,1959
6587,1951
6591,1959
6595,1966
6599,1936
6603,1872
6607,1819
6611,1865
6615,2080
6619,2429
6623,2908
6627,3447
6631,3495
6635,3071
6639,2591
6643,2150
6647,1936
6651,1898
6655,1927
6659,1951
6663,1961
6667,1945
6671,1926
6675,1932
6679,1929
6683,1905
6687,1904
6691,1907
6695,1925
6699,1921
6703,1915
6707,1921
6711,1927
6715,1929
6719,1942
6723,1940
6727,1946
6731,1949
6735,1936
6739,1935
6743,1949
6747,1949
6751,1950
6755,1952
6759,1966
6763,1975
6767,1973
6771,1979
6775,1984
6779,1997
6783,1993
6787,1986
6791,2000
6795,2016
6799,2028
6803,2031
6807,2035
6811,2045
6815,2055
6819,2058
6823,2071
6827,2094
6831,2091
6835,2097
6839,2114
6843,2142
6847,2157
6851,2154
6855,2165
6859,2186
6863,2195
6867,2191
6871,2196
6875,2197
6879,2208
6883,2218
6887,2205
6891,2209
6895,2215
6899,2205
6903,2185
6907,2161
6911,2139
6915,2102
6919,2059
6923,2019
6927,1997
6931,1957
6935,1968
6939,1903
6943,1914
6947,1893
6951,1840
6955,1837
6959,1840
6963,1834
6967,1835
6971,1854
6975,1827
6979,1826
6983,1831
6987,1815
6991,1796
6995,1836
6999,1837
7003,1831
7007,1840
7011,1853
7015,1856
7019,1846
7023,1852
7027,1857
7031,1863
7035,1865
7039,1860
7043,1872
7047,1873
7051,1865
7055,1868
7059,1874
7063,1884
7067,1875
7071,1871
7075,1872
7079,1873
7083,1875
7087,1879
7091,1873
7095,1872
7099,1875
7103,1863
7107,1870
7111,1879
7115,1872
7119,1874
7123,1872
7127,1879
7131,1877
7135,1865
7139,1872
7143,1885
7147,1883
7151,1875
7155,1872
7159,1881
7163,1889
7167,1872
7171,1873
7175,1879
7179,1883
7183,1879
7187,1873
7191,1888
7195,1887
7199,1885
7203,1878
7207,1886
7211,1890
7215,1895
7219,1893
7223,1892
7227,1906
7231,1901
7235,1889
7239,1893
7243,1903
7247,1899
7251,1899
7255,1903
7259,1910
7263,1918
7267,1909
7271,1904
7275,1915
7279,1920
7283,1907
7287,1906
7291,1907
7295,1918
7299,1913
7303,1915
7307,1926
7311,1936
7315,1920
7319,1918
7323,1920
7327,1920
7331,1923
7335,1921
7339,1929
7343,1931
7347,1927
7351,1925
7355,1922
7359,1931
7363,1937
7367,1936
7371,1931
7375,1948
7379,1969
7383,1984
7387,1986
7391,2000
7395,2001
7399,2013
7403,2001
7407,1998
7411,1995
7415,1982
7419,1969
7423,1953
7427,1939
7431,1938
7435,1930
7439,1938
7443,1937
7447,1941
7451,1937
7455,1938
7459,1952
7463,1953
7467,1949
7471,1939
7475,1951
7479,1953
7483,1952
7487,1947
7491,1936
7495,1887
7499,1799
7503,1753
7507,1907
7511,2323
7515,2910
7519,3694
7523,4095
7527,4071
7531,3283
7535,2631
7539,2171
7543,1973
7547,1936
7551,1947
7555,1936
7559,1933
7563,1910
7567,1882
7571,1869
7575,1866
7579,1866
7583,1856
7587,1861
7591,1867
7595,1876
7599,1873
7603,1863
7607,1870
7611,1875
7615,1879
7619,1872
7623,1891
7627,1891
7631,1902
7635,1893
7639,1895
7643,1899
7647,1904
7651,1904
7655,1905
7659,1923
7663,1931
7667,1936
7671,1936
7675,1949
7679,1955
7683,1957
7687,1961
7691,1968
7695,1984
7699,1982
7703,1983
7707,1997
7711,2005
7715,2013
7719,2022
7723,2037
7727,2054
7731,2067
7735,2077
7739,2094
7743,2119
7747,2127
7751,2135
7755,2139
7759,2150
7763,2166
7767,2173
7771,2179
7775,2195
7779,2210
7783,2205
7787,2211
7791,2213
7795,2212
7799,2192
7803,2161
7807,2132
7811,2107
7815,2062
7819,2015
7823,1978
7827,1947
7831,1930
7835,1893
7839,1872
7843,1863
7847,1853
7851,1837
7855,1828
7859,1865
7863,1837
7867,1812
7871,1822
7875,1826
7879,1819
7883,1853
7887,1783
7891,1863
7895,1841
7899,1856
7903,1830
7907,1847
7911,1851
7915,1851
7919,1845
7923,1850
7927,1859
7931,1866
7935,1856
7939,1847
7943,1858
7947,1854
7951,1854
7955,1853
7959,1859
7963,1863
7967,1855
7971,1856
7975,1857
7979,1863
7983,1856
7987,1857
7991,1865
7995,1872
7999,1866
8003,1870
8007,1866
8011,1867
8015,1854
8019,1865
8023,1872
8027,1879
8031,1875
8035,1872
8039,1869
8043,1874
8047,1879
8051,1873
8055,1872
8059,1886
8063,1891
8067,1886
8071,1882
8075,1883
8079,1891
8083,1883
8087,1885
8091,1886
8095,1904
8099,1894
8103,1886
8107,1895
8111,1904
8115,1904
8119,1897
8123,1900
8127,1906
8131,1902
8135,1897
8139,1903
8143,1909
8147,1906
8151,1897
8155,1904
8159,1909
8163,1922
8167,1914
8171,1904
8175,1916
8179,1911
8183,1913
8187,1905
8191,1916
8195,1921
8199,1920
8203,1917
8207,1930
8211,1933
8215,1929
8219,1922
8223,1935
8227,1934
8231,1924
8235,1926
8239,1925
8243,1931
8247,1936
8251,1923
8255,1935
8259,1940
8263,1948
8267,1936
8271,1936
8275,1942
8279,1942
8283,1942
8287,1934
8291,1942
8295,1967
8299,1987
8303,2007
8307,2006
8311,2015
8315,2031
8319,2011
8323,2021
8327,2018
8331,2009
8335,1985
8339,1983
8343,1978
8347,1957
8351,1939
8355,1950
8359,1951
8363,1952
8367,1945
8371,1941
8375,1950
8379,1954
8383,1951
8387,1940
8391,1955
8395,1952
8399,1955
8403,1953
8407,1952
8411,1907
8415,1819
8419,1728
8423,1804
8427,2174
8431,2769
8435,3622
8439,4095
8443,4095
8447,4095
8451,3217
8455,2507
8459,2109
8463,1968
8467,1946
8471,1945
8475,1936
8479,1918
8483,1890
8487,1863
8491,1856
8495,1861
8499,1857
8503,1842
8507,1852
8511,1856
8515,1851
8519,1847
8523,1857
8527,1871
8531,1872
8535,1871
8539,1886
8543,1887
8547,1891
8551,1889
8555,1879
8559,1889
8563,1902
8567,1895
8571,1901
8575,1905
8579,1915
8583,1920
8587,1920
8591,1933
8595,1939
8599,1937
8603,1942
8607,1954
8611,1959
8615,1968
8619,1968
8623,1973
8627,1991
8631,2001
8635,2001
8639,2010
8643,2029
8647,2039
8651,2047
8655,2067
8659,2096
8663,2107
8667,2105
8671,2118
8675,2132
8679,2145
8683,2151
8687,2159
8691,2173
8695,2187
8699,2192
8703,2189
8707,2198
8711,2197
8715,2189
8719,2167
8723,2147
8727,2123
8731,2096
8735,2039
8739,2004
8743,1967
8747,1938
8751,1902
8755,1886
8759,1872
8763,1853
8767,1840
8771,1833
8775,1834
8779,1836
8783,1840
8787,1827
8791,1835
8795,1840
8799,1839
8803,1856
8807,1842
8811,1842
8815,1846
8819,1849
8823,1849
8827,1856
8831,1853
8835,1850
8839,1856
8843,1864
8847,1861
8851,1857
8855,1856
8859,1858
8863,1861
8867,1857
8871,1857
8875,1866
8879,1872
8883,1856
8887,1855
8891,1862
8895,1867
8899,1866
8903,1854
8907,1856
8911,1866
8915,1866
8919,1857
8923,1861
8927,1871
8931,1860
8935,1861
8939,1863
8943,1872
8947,1865
8951,1851
8955,1858
8959,1872
8963,1879
8967,1872
8971,1877
8975,1874
8979,1874
8983,1874
8987,1874
8991,1877
8995,1886
8999,1876
9003,1872
9007,1878
9011,1885
9015,1883
9019,1878
9023,1889
9027,1898
9031,1902
9035,1892
9039,1903
9043,1905
9047,1905
9051,1903
9055,1899
9059,1904
9063,1905
9067,1907
9071,1907
9075,1914
9079,1908
9083,1909
9087,1909
9091,1910
9095,1916
9099,1915
9103,1906
9107,1921
9111,1925
9115,1933
9119,1921
9123,1929
9127,1937
9131,1934
9135,1926
9139,1931
9143,1934
9147,1946
9151,1930
9155,1929
9159,1939
9163,1942
9167,1945
9171,1936
9175,1947
9179,1949
9183,1949
9187,1939
9191,1949
9195,1957
9199,1958
9203,1965
9207,1983
9211,2015
9215,2014
9219,2022
9223,2022
9227,2037
9231,2033
9235,2021
9239,2005
9243,2000
9247,1990
9251,1964
9255,1945
9259,1947
9263,1955
9267,1949
9271,1950
9275,1955
9279,1955
9283,1950
9287,1949
9291,1958
9295,1954
9299,1955
9303,1951
9307,1963
9311,1963
9315,1947
9319,1891
9323,1792
9327,1722
9331,1830
9335,2224
9339,2876
9343,3883
9347,4095
9351,4095
9355,4095
9359,3222
9363,2499
9367,2100
9371,1970
9375,1951
9379,1952
9383,1929
9387,1899
9391,1879
9395,1872
9399,1852
9403,1850
9407,1851
9411,1854
9415,1849
9419,1852
9423,1856
9427,1859
9431,1857
9435,1861
9439,1872
9443,1881
9447,1885
9451,1874
9455,1881
9459,1889
9463,1895
9467,1901
9471,1899
9475,1904
9479,1911
9483,1915
9487,1912
9491,1921
9495,1927
9499,1938
9503,1936
9507,1949
9511,1955
9515,1963
9519,1958
9523,1961
9527,1983
9531,1991
9535,1993
9539,1999
9543,2018
9547,2027
9551,2027
9555,2045
9559,2064
9563,2085
9567,2086
9571,2096
9575,2112
9579,2128
9583,2133
9587,2142
9591,2159
9595,2169
9599,2176
9603,2176
9607,2189
9611,2199
9615,2202
9619,2195
9623,2185
9627,2170
9631,2143
9635,2111
9639,2079
9643,2034
9647,2000
9651,1962
9655,1934
9659,1911
9663,1898
9667,1867
9671,1856
9675,1853
9679,1843
9683,1839
9687,1827
9691,1823
9695,1839
9699,1841
9703,1829
9707,1841
9711,1844
9715,1841
9719,1818
9723,1841
9727,1846
9731,1846
9735,1843
9739,1851
9743,1856
9747,1855
9751,1847
9755,1855
9759,1858
9763,1858
9767,1859
9771,1857
9775,1862
9779,1860
9783,1861
9787,1865
9791,1872
9795,1871
9799,1859
9803,1855
9807,1862
9811,1866
9815,1863
9819,1857
9823,1866
9827,1872
9831,1866
9835,1865
9839,1859
9843,1861
9847,1866
9851,1855
9855,1856
9859,1866
9863,1872
9867,1862
9871,1866
9875,1875
9879,1882
9883,1874
9887,1867
9891,1867
9895,1872
9899,1881
9903,1874
9907,1886
9911,1885
9915,1882
9919,1872
9923,1879
9927,1888
9931,1892
9935,1883
9939,1889
9943,1902
9947,1901
9951,1899
9955,1904
9959,1904
9963,1904
9967,1906
9971,1905
9975,1906
9979,1913
9983,1905
9987,1904
9991,1915
9995,1921
9999,1909
10003,1911
10007,1907
10011,1918
10015,1926
10019,1917
10023,1917
10027,1919
10031,1921
10035,1918
10039,1922
10043,1936
10047,1937
10051,1926
10055,1931
10059,1938
10063,1966
10067,1981
10071,1991
10075,2000
10079,2011
10083,2019
10087,2012
10091,2015
10095,2006
10099,1994
10103,1979
10107,1968
10111,1942
10115,1937
10119,1932
10123,1936
10127,1951
10131,1949
10135,1938
10139,1949
10143,1942
10147,1943
10151,1936
10155,1938
10159,1943
10163,1953
10167,1951
10171,1947
10175,1929
10179,1856
10183,1751
10187,1734
10191,1950
10195,2465
10199,3181
10203,4095
10207,4095
10211,4095
10215,3461
10219,2670
10223,2178
10227,1991
10231,1955
10235,1949
10239,1936
10243,1920
10247,1904
10251,1872
10255,1857
10259,1860
10263,1856
10267,1841
10271,1840
10275,1856
10279,1862
10283,1859
10287,1863
10291,1870
10295,1873
10299,1872
10303,1872
10307,1873
10311,1887
10315,1891
10319,1890
10323,1900
10327,1914
10331,1910
10335,1918
10339,1925
10343,1940
10347,1942
10351,1937
10355,1943
10359,1951
10363,1956
10367,1956
10371,1966
10375,1977
10379,1989
10383,1993
10387,1999
10391,2011
10395,2029
10399,2033
10403,2036
10407,2059
10411,2077
10415,2079
10419,2086
10423,2109
10427,2125
10431,2141
10435,2150
10439,2160
10443,2167
10447,2183
10451,2177
10455,2187
10459,2193
10463,2207
10467,2202
10471,2202
10475,2195
10479,2197
10483,2171
10487,2150
10491,2118
10495,2090
10499,2047
10503,2000
10507,1970
10511,1941
10515,1915
10519,1877
10523,1862
10527,1849
10531,1843
10535,1837
10539,1836
10543,1835
10547,1841
10551,1839
10555,1831
10559,1840
10563,1840
10567,1830
10571,1829
10575,1835
10579,1844
10583,1845
10587,1856
10591,1846
10595,1939
10599,1858
10603,1886
10607,1861
10611,1871
10615,1865
10619,1851
10623,1862
10627,1877
10631,1904
10635,1850
10639,1868
10643,1853
10647,1870
10651,1871
10655,1874
10659,1872
10663,1872
10667,1866
10671,1867
10675,1871
10679,1877
10683,1859
10687,1871
10691,1872
10695,1872
10699,1871
10703,1870
10707,1869
10711,1875
10715,1872
10719,1869
10723,1869
10727,1882
10731,1883
10735,1871
10739,1872
10743,1886
10747,1886
10751,1872
10755,1873
10759,1889
10763,1898
10767,1889
10771,1893
10775,1891
10779,1890
10783,1888
10787,1892
10791,1904
10795,1909
10799,1911
10803,1898
10807,1905
10811,1919
10815,1908
10819,1901
10823,1898
10827,1920
10831,1919
10835,1905
10839,1911
10843,1917
10847,1918
10851,1913
10855,1917
10859,1926
10863,1944
10867,1955
10871,1975
10875,1990
10879,1998
10883,2000
10887,2000
10891,1998
10895,1990
10899,1968
10903,1954
10907,1943
10911,1930
10915,1920
10919,1919
10923,1920
10927,1934
10931,1935
10935,1930
10939,1921
10943,1931
10947,1930
10951,1933
10955,1931
10959,1936
10963,1937
10967,1940
10971,1937
10975,1936
10979,1899
10983,1820
10987,1769
10991,1851
10995,2166
10999,2665
11003,3344
11007,4095
11011,3988
11015,3244
11019,2581
11023,2121
11027,1957
11031,1935
11035,1945
11039,1950
11043,1947
11047,1933
11051,1910
11055,1884
11059,1894
11063,1891
11067,1885
11071,1887
11075,1900
11079,1897
11083,1891
11087,1887
11091,1894
11095,1907
11099,1907
11103,1904
11107,1906
11111,1919
11115,1927
11119,1921
11123,1923
11127,1935
11131,1935
11135,1941
11139,1951
11143,1962
11147,1971
11151,1965
11155,1979
11159,1990
11163,2000
11167,1997
11171,1993
11175,2004
11179,2023
11183,2032
11187,2032
11191,2043
11195,2063
11199,2069
11203,2082
11207,2094
11211,2112
11215,2118
11219,2112
11223,2129
11227,2149
11231,2163
11235,2171
11239,2176
11243,2191
11247,2198
11251,2197
11255,2202
11259,2215
11263,2222
11267,2214
11271,2211
11275,2214
11279,2205
11283,2176
11287,2146
11291,2115
11295,2081
11299,2034
11303,1990
11307,1968
11311,1940
11315,1906
11319,1882
11323,1872
11327,1860
11331,1852
11335,1841
11339,1838
11343,1840
11347,1843
11351,1840
11355,1847
11359,1857
11363,1853
11367,1845
11371,1841
11375,1846
11379,1855
11383,1846
11387,1861
11391,1861
11395,1868
11399,1861
11403,1855
11407,1863
11411,1877
11415,1869
11419,1871
11423,1859
11427,1878
11431,1875
11435,1879
11439,1878
11443,1877
11447,1870
11451,1867
11455,1872
11459,1877
11463,1872
11467,1866
11471,1871
11475,1881
11479,1882
11483,1872
11487,1866
11491,1872
11495,1878
11499,1877
11503,1878
11507,1840
11511,1877
11515,1885
11519,1886
11523,1887
11527,1895
11531,1890
11535,1923
11539,1894
11543,1895
11547,1867
11551,1910
11555,1899
11559,1904
11563,1907
11567,1902
11571,1891
11575,1910
11579,1925
11583,1936
11587,1963
11591,1985
11595,1990
11599,1982
11603,1973
11607,1968
11611,1968
11615,1946
11619,1927
11623,1927
11627,1921
11631,1923
11635,1924
11639,1925
11643,1933
11647,1931
11651,1927
11655,1927
11659,1939
11663,1936
11667,1937
11671,1934
11675,1946
11679,1936
11683,1936
11687,1937
11691,1937
11695,1890
11699,1823
11703,1783
11707,1901
11711,2221
11715,2685
11719,3277
11723,3737
11727,3444
11731,2902
11735,2353
11739,2000
11743,1909
11747,1918
11751,1935
11755,1942
11759,1943
11763,1936
11767,1919
11771,1919
11775,1918
11779,1908
11783,1902
11787,1897
11791,1903
11795,1909
11799,1913
11803,1907
11807,1914
11811,1927
11815,1934
11819,1935
11823,1937
11827,1952
11831,1950
11835,1942
11839,1955
11843,1954
11847,1963
11851,1965
11855,1968
11859,1972
11863,1985
11867,1978
11871,1989
11875,1985
11879,1995
11883,1989
11887,2001
11891,2025
11895,2032
11899,2031
11903,2033
11907,2043
11911,2064
11915,2073
11919,2081
11923,2098
11927,2112
11931,2118
11935,2130
11939,2147
11943,2162
11947,2173
11951,2174
11955,2176
11959,2189
11963,2192
11967,2190
11971,2191
11975,2201
11979,2206
11983,2198
11987,2182
11991,2190
11995,2174
11999,2133
12003,2097
12007,2064
12011,2037
12015,1997
12019,1959
12023,1936
12027,1906
12031,1889
12035,1870
12039,1861
12043,1858
12047,1847
12051,1841
12055,1840
12059,1845
12063,1846
12067,1846
12071,1833
12075,1842
12079,1849
12083,1842
12087,1841
12091,1849
12095,1855
12099,1852
12103,1847
12107,1856
12111,1863
12115,1868
12119,1863
12123,1872
12127,1873
12131,1876
12135,1866
12139,1874
12143,1872
12147,1881
12151,1870
12155,1870
12159,1872
12163,1870
12167,1872
12171,1876
12175,1872
12179,1875
12183,1870
12187,1862
12191,1867
12195,1872
12199,1872
12203,1865
12207,1868
12211,1866
12215,1871
12219,1865
12223,1870
12227,1869
12231,1877
12235,1871
12239,1872
12243,1875
12247,1887
12251,1884
12255,1874
12259,1884
12263,1891
12267,1889
12271,1895
12275,1919
12279,1949
12283,1954
12287,1963
12291,1958
12295,1937
12299,1931
12303,1913
12307,1919
12311,1907
12315,1904
12319,1885
12323,1887
12327,1901
12331,1895
12335,1890
12339,1892
12343,1904
12347,1906
12351,1893
12355,1898
12359,1903
12363,1904
12367,1904
12371,1899
12375,1907
12379,1906
12383,1882
12387,1821
12391,1745
12395,1760
12399,1966
12403,2385
12407,2976
12411,3717
12415,4050
12419,3503
12423,2864
12427,2294
12431,1983
12435,1899
12439,1904
12443,1914
12447,1922
12451,1893
12455,1885
12459,1881
12463,1898
12467,1885
12471,1851
12475,1859
12479,1873
12483,1872
12487,1856
12491,1863
12495,1871
12499,1872
12503,1872
12507,1874
12511,1888
12515,1891
12519,1891
12523,1903
12527,1909
12531,1904
12535,1895
12539,1910
12543,1919
12547,1930
12551,1926
12555,1934
12559,1941
12563,1957
12567,1947
12571,1952
12575,1968
12579,1967
12583,1971
12587,1979
12591,1997
12595,2003
12599,2006
12603,2022
12607,2029
12611,2054
12615,2064
12619,2064
12623,2082
12627,2106
12631,2122
12635,2127
12639,2128
12643,2144
12647,2157
12651,2150
12655,2163
12659,2181
12663,2191
12667,2192
12671,2187
12675,2196
12679,2193
12683,2171
12687,2143
12691,2117
12695,2091
12699,2046
12703,2007
12707,1978
12711,1952
12715,1926
12719,1899
12723,1872
12727,1877
12731,1859
12735,1849
12739,1849
12743,1845
12747,1854
12751,1845
12755,1840
12759,1844
12763,1851
12767,1854
12771,1843
12775,1849
12779,1855
12783,1859
12787,1850
12791,1857
12795,1870
12799,1872
12803,1866
12807,1872
12811,1876
12815,1874
12819,1870
12823,1871
12827,1875
12831,1872
12835,1872
12839,1872
12843,1878
12847,1879
12851,1875
12855,1873
12859,1883
12863,1872
12867,1873
12871,1871
12875,1873
12879,1879
12883,1875
12887,1875
12891,1875
12895,1889
12899,1872
12903,1869
12907,1872
12911,1875
12915,1877
12919,1872
12923,1875
12927,1887
12931,1887
12935,1889
12939,1887
12943,1900
12947,1902
12951,1895
12955,1891
12959,1895
12963,1900
12967,1894
12971,1893
12975,1895
12979,1904
12983,1903
12987,1899
12991,1907
12995,1915
12999,1910
13003,1904
13007,1904
13011,1929
13015,1940
13019,1949
13023,1981
13027,1996
13031,1988
13035,1970
13039,1957
13043,1954
13047,1953
13051,1931
13055,1922
13059,1918
13063,1917
13067,1909
13071,1904
13075,1919
13079,1919
13083,1915
13087,1918
13091,1922
13095,1936
13099,1953
13103,1925
13107,1929
13111,1938
13115,1941
13119,1927
13123,1918
13127,1863
13131,1776
13135,1734
13139,1920
13143,2384
13147,3039
13151,3972
13155,4095
13159,4095
13163,3435
13167,2693
13171,2179
13175,1983
13179,1949
13183,1947
13187,1921
13191,1906
13195,1887
13199,1863
13203,1841
13207,1841
13211,1853
13215,1849
13219,1834
13223,1844
13227,1855
13231,1857
13235,1847
13239,1853
13243,1863
13247,1872
13251,1866
13255,1869
13259,1873
13263,1882
13267,1883
13271,1889
13275,1902
13279,1904
13283,1903
13287,1906
13291,1918
13295,1931
13299,1929
13303,1923
13307,1921
13311,1937
13315,1946
13319,1941
13323,1955
13327,1905
13331,1989
13335,1980
13339,1990
13343,1984
13347,2016
13351,2014
13355,2021
13359,2061
13363,2060
13367,2071
13371,2073
13375,2087
13379,2131
13383,2131
13387,2128
13391,2126
13395,2147
13399,2153
13403,2151
13407,2162
13411,2177
13415,2186
13419,2174
13423,2176
13427,2160
13431,2138
13435,2100
13439,2064
13443,2030
13447,2000
13451,1961
13455,1936
13459,1906
13463,1888
13467,1870
13471,1855
13475,1841
13479,1841
13483,1841
13487,1838
13491,1840
13495,1840
13499,1844
13503,1840
13507,1850
13511,1842
13515,1854
13519,1845
13523,1850
13527,1858
13531,1863
13535,1849
13539,1856
13543,1863
13547,1862
13551,1868
13555,1862
13559,1859
13563,1871
13567,1860
13571,1845
13575,1861
13579,1872
13583,1865
13587,1868
13591,1870
13595,1874
13599,1868
13603,1861
13607,1872
13611,1868
13615,1872
13619,1865
13623,1869
13627,1869
13631,1872
13635,1870
13639,1871
13643,1874
13647,1879
13651,1867
13655,1870
13659,1882
13663,1885
13667,1875
13671,1878
13675,1883
13679,1886
13683,1888
13687,1891
13691,1891
13695,1902
13699,1894
13703,1887
13707,1891
13711,1891
13715,1898
13719,1902
13723,1903
13727,1908
13731,1903
13735,1904
13739,1904
13743,1910
13747,1909
13751,1914
13755,1916
13759,1920
13763,1925
13767,1920
13771,1918
13775,1919
13779,1922
13783,1923
13787,1935
13791,1957
13795,1979
13799,1986
13803,1995
13807,1994
13811,1989
13815,1977
13819,1957
13823,1961
13827,1954
13831,1939
13835,1924
13839,1919
13843,1932
13847,1936
13851,1931
13855,1934
13859,1940
13863,1936
13867,1931
13871,1935
13875,1937
13879,1941
13883,1940
13887,1937
13891,1941
13895,1936
13899,1867
13903,1758
13907,1727
13911,1921
13915,2404
13919,3079
13923,4095
13927,4095
13931,4095
13935,3568
13939,2770
13943,2238
13947,2001
13951,1941
13955,1937
13959,1937
13963,1909
13967,1883
13971,1854
13975,1854
13979,1845
13983,1840
13987,1839
13991,1835
13995,1849
13999,1844
14003,1847
14007,1851
14011,1870
14015,1861
14019,1862
14023,1869
14027,1881
14031,1882
14035,1874
14039,1881
14043,1895
14047,1900
14051,1904
14055,1898
14059,1907
14063,1909
14067,1910
14071,1904
14075,1926
14079,1936
14083,1934
14087,1936
14091,1947
14095,1954
14099,1967
14103,1966
14107,1981
14111,1984
14115,1997
14119,2000
14123,2006
14127,2028
14131,2039
14135,2042
14139,2061
14143,2080
14147,2095
14151,2099
14155,2111
14159,2119
14163,2129
14167,2139
14171,2151
14175,2157
14179,2167
14183,2171
14187,2173
14191,2178
14195,2179
14199,2163
14203,2137
14207,2113
14211,2084
14215,2035
14219,1989
14223,1967
14227,1947
14231,1916
14235,1887
14239,1872
14243,1867
14247,1885
14251,1840
14255,1846
14259,1856
14263,1854
14267,1845
14271,1837
14275,1841
14279,1843
14283,1877
14287,1825
14291,1853
14295,1847
14299,1856
14303,1845
14307,1855
14311,1861
14315,1862
14319,1856
14323,1849
14327,1863
14331,1857
14335,1847
14339,1847
14343,1858
14347,1863
14351,1857
14355,1856
14359,1861
14363,1867
14367,1851
14371,1859
14375,1866
14379,1871
14383,1867
14387,1862
14391,1871
14395,1875
14399,1879
14403,1874
14407,1876
14411,1883
14415,1883
14419,1872
14423,1873
14427,1878
14431,1883
14435,1874
14439,1877
14443,1888
14447,1899
14451,1883
14455,1886
14459,1891
14463,1891
14467,1886
14471,1876
14475,1884
14479,1892
14483,1899
14487,1895
14491,1902
14495,1903
14499,1899
14503,1899
14507,1898
14511,1915
14515,1913
14519,1918
14523,1938
14527,1968
14531,1998
14535,1998
14539,1994
14543,1981
14547,1970
14551,1957
14555,1942
14559,1939
14563,1921
14567,1908
14571,1914
14575,1922
14579,1936
14583,1927
14587,1921
14591,1920
14595,1929
14599,1920
14603,1916
14607,1930
14611,1936
14615,1932
14619,1925
14623,1936
14627,1936
14631,1891
14635,1785
14639,1709
14643,1805
14647,2206
14651,2832
14655,3745
14659,4095
14663,4095
14667,3863
14671,2971
14675,2347
14679,2037
14683,1936
14687,1942
14691,1942
14695,1930
14699,1905
14703,1872
14707,1851
14711,1855
14715,1841
14719,1839
14723,1838
14727,1843
14731,1846
14735,1847
14739,1847
14743,1859
14747,1857
14751,1856
14755,1868
14759,1874
14763,1881
14767,1875
14771,1872
14775,1879
14779,1897
14783,1899
14787,1898
14791,1904
14795,1918
14799,1919
14803,1920
14807,1923
14811,1942
14815,1942
14819,1942
14823,1954
14827,1974
14831,1975
14835,1979
14839,1983
14843,2001
14847,2002
14851,2010
14855,2013
14859,2032
14863,2043
14867,2058
14871,2069
14875,2093
14879,2111
14883,2113
14887,2116
14891,2128
14895,2143
14899,2150
14903,2160
14907,2174
14911,2187
14915,2193
14919,2191
14923,2194
14927,2190
14931,2177
14935,2141
14939,2127
14943,2082
14947,2043
14951,1998
14955,1968
14959,1938
14963,1913
14967,1892
14971,1872
14975,1867
14979,1865
14983,1853
14987,1841
14991,1840
14995,1840
14999,1843
15003,1840
15007,1839
15011,1840
15015,1843
15019,1840
15023,1840
15027,1851
15031,1859
15035,1850
15039,1848
15043,1863
15047,1857
15051,1857
15055,1847
15059,1857
15063,1871
15067,1865
15071,1856
15075,1862
15079,1872
15083,1867
15087,1858
15091,1874
15095,1874
15099,1872
15103,1870
15107,1870
15111,1883
15115,1879
15119,1878
15123,1876
15127,1887
15131,1897
15135,1888
15139,1879
15143,1890
15147,1885
15151,1889
15155,1890
15159,1889
15163,1899
15167,1886
15171,1895
15175,1895
15179,1911
15183,1882
15187,1879
15191,1891
15195,1893
15199,1901
15203,1907
15207,1882
15211,1920
15215,1904
15219,1903
15223,1904
15227,1907
15231,1907
15235,1909
15239,1907
15243,1909
15247,1919
15251,1904
15255,1904
15259,1920
15263,1929
15267,1925
15271,1917
15275,1914
15279,1914
15283,1918
15287,1905
15291,1920
15295,1919
15299,1911
15303,1914
15307,1920
15311,1929
15315,1919
15319,1926
15323,1928
15327,1939
15331,1936
15335,1937
15339,1931
15343,1936
15347,1947
15351,1942
15355,1936
15359,1945
15363,1952
15367,1950
15371,1968
15375,1989
15379,2001
15383,2005
15387,2015
15391,2030
15395,2030
15399,2012
15403,1997
15407,1983
15411,1983
15415,1967
15419,1943
15423,1936
15427,1950
15431,1949
15435,1939
15439,1939
15443,1951
15447,1955
15451,1950
15455,1936
15459,1945
15463,1947
15467,1945
15471,1943
15475,1953
15479,1957
15483,1936
15487,1856
15491,1765
15495,1738
15499,1919
15503,2355
15507,3003
15511,3984
15515,4095
15519,4095
15523,3289
15527,2581
15531,2138
15535,1967
15539,1936
15543,1952
15547,1954
15551,1937
15555,1915
15559,1895
15563,1885
15567,1876
15571,1867
15575,1870
15579,1878
15583,1872
15587,1865
15591,1871
15595,1876
15599,1875
15603,1872
15607,1882
15611,1890
15615,1906
15619,1895
15623,1903
15627,1913
15631,1920
15635,1915
15639,1923
15643,1931
15647,1936
15651,1935
15655,1945
15659,1951
15663,1968
15667,1968
15671,1967
15675,1968
15679,1973
15683,1983
15687,1990
15691,2008
15695,2018
15699,2017
15703,2018
15707,2031
15711,2054
15715,2064
15719,2059
15723,2073
15727,2085
15731,2101
15735,2096
15739,2107
15743,2127
15747,2134
15751,2140
15755,2134
15759,2138
15763,2150
15767,2148
15771,2150
15775,2165
15779,2167
15783,2169
15787,2159
15791,2143
15795,2115
15799,2091
15803,2055
15807,2032
15811,2000
15815,1970
15819,1937
15823,1919
15827,1907
15831,1897
15835,1886
15839,1875
15843,1873
15847,1867
15851,1857
15855,1853
15859,1847
15863,1859
15867,1863
15871,1867
15875,1869
15879,1869
15883,1871
15887,1869
15891,1874
15895,1881
15899,1876
15903,1863
15907,1869
15911,1886
15915,1883
15919,1873
15923,1877
15927,1887
15931,1883
15935,1872
15939,1870
15943,1879
15947,1875
15951,1872
15955,1872
15959,1872
15963,1883
15967,1878
15971,1873
15975,1876
15979,1872
15983,1872
15987,1875
15991,1873
15995,1886
15999,1886
16003,1883
16007,1879
16011,1885
16015,1883
16019,1872
16023,1873
16027,1888
16031,1895
16035,1877
16039,1872
16043,1872
16047,1885
16051,1885
16055,1883
16059,1889
16063,1895
16067,1889
16071,1877
16075,1937
16079,1909
16083,1905
16087,1893
16091,1895
16095,1904
16099,1904
16103,1904
16107,1904
16111,1915
16115,1917
16119,1909
16123,1900
16127,1917
16131,1921
16135,1925
16139,1910
16143,1911
16147,1915
16151,1919
16155,1917
16159,1931
16163,1931
16167,1936
16171,1925
16175,1934
16179,1945
16183,1953
16187,1964
16191,1982
16195,2000
16199,2003
16203,2002
16207,2004
16211,2000
16215,1986
16219,1964
16223,1955
16227,1950
16231,1939
16235,1929
16239,1926
16243,1936
16247,1936
16251,1926
16255,1935
16259,1945
16263,1949
16267,1936
16271,1936
16275,1939
16279,1939
16283,1942
16287,1941
16291,1951
16295,1954
16299,1911
16303,1830
16307,1789
16311,1855
16315,2111
16319,2503
16323,3065
16327,3638
16331,3535
16335,3024
16339,2496
16343,2095
16347,1936
16351,1918
16355,1935
16359,1958
16363,1961
16367,1949
16371,1931
16375,1920
16379,1921
16383,1910
16387,1901
16391,1917
16395,1921
16399,1927
16403,1919
16407,1926
16411,1935
16415,1932
16419,1936
16423,1936
16427,1948
16431,1953
16435,1941
16439,1955
16443,1968
16447,1977
16451,1968
16455,1972
16459,1984
16463,1997
16467,1990
16471,1982
16475,1989
16479,2003
16483,2003
16487,2014
16491,2031
16495,2033
16499,2038
16503,2034
16507,2043
16511,2060
16515,2064
16519,2066
16523,2077
16527,2099
16531,2111
16535,2107
16539,2114
16543,2131
16547,2135
16551,2135
16555,2143
16559,2150
16563,2157
16567,2147
16571,2141
16575,2151
16579,2163
16583,2160
16587,2161
16591,2160
16595,2149
16599,2138
16603,2112
16607,2096
16611,2076
16615,2042
16619,2002
16623,1986
16627,1964
16631,1941
16635,1914
16639,1900
16643,1890
16647,1883
16651,1876
16655,1873
16659,1883
16663,1893
16667,1872
16671,1868
16675,1870
16679,1879
16683,1886
16687,1872
16691,1877
16695,1887
16699,1883
16703,1878
16707,1886
16711,1895
16715,1898
16719,1891
16723,1893
16727,1907
16731,1901
16735,1897
16739,1901
16743,1904
16747,1904
16751,1895
16755,1894
16759,1903
16763,1907
16767,1907
16771,1901
16775,1905
16779,1909
16783,1898
16787,1892
16791,1899
16795,1904
16799,1904
16803,1904
16807,1901
16811,1895
16815,1902
16819,1901
16823,1905
16827,1914
16831,1913
16835,1900
16839,1893
16843,1904
16847,1905
16851,1897
16855,1898
16859,1908
16863,1911
16867,1905
16871,1908
16875,1914
16879,1919
16883,1911
16887,1901
16891,1904
16895,1915
16899,1922
16903,1914
16907,1904
16911,1918
16915,1922
16919,1922
16923,1922
16927,1936
16931,1956
16935,1967
16939,1967
16943,1973
16947,1983
16951,1984
16955,1981
16959,1970
16963,1965
16967,1949
16971,1936
16975,1939
16979,1919
16983,1915
16987,1919
16991,1923
16995,1926
16999,1935
17003,1902
17007,1919
17011,1921
17015,1916
17019,1921
17023,1929
17027,1943
17031,1919
17035,1879
17039,1911
17043,1925
17047,1915
17051,1856
17055,1785
17059,1809
17063,1985
17067,2323
17071,2801
17075,3339
17079,3473
17083,3103
17087,2624
17091,2181
17095,1951
17099,1892
17103,1894
17107,1922
17111,1937
17115,1927
17119,1922
17123,1916
17127,1915
17131,1905
17135,1902
17139,1891
17143,1893
17147,1899
17151,1892
17155,1903
17159,1907
17163,1915
17167,1920
17171,1905
17175,1919
17179,1929
17183,1936
17187,1931
17191,1938
17195,1947
17199,1951
17203,1942
17207,1950
17211,1965
17215,1967
17219,1966
17223,1967
17227,1981
17231,1984
17235,2017
17239,1997
17243,2011
17247,2018
17251,2018
17255,2018
17259,2024
17263,2037
17267,2043
17271,2039
17275,2065
17279,2084
17283,2085
17287,2094
17291,2102
17295,2123
17299,2128
17303,2130
17307,2137
17311,2154
17315,2157
17319,2151
17323,2147
17327,2159
17331,2170
17335,2171
17339,2157
17343,2155
17347,2144
17351,2126
17355,2090
17359,2066
17363,2032
17367,2002
17371,1969
17375,1936
17379,1921
17383,1901
17387,1879
17391,1865
17395,1861
17399,1856
17403,1840
17407,1841
17411,1843
17415,1849
17419,1842
17423,1841
17427,1845
17431,1844
17435,1842
17439,1842
17443,1857
17447,1866
17451,1872
17455,1868
17459,1872
17463,1872
17467,1872
17471,1870
17475,1883
17479,1884
17483,1883
17487,1872
17491,1874
17495,1886
17499,1884
17503,1887
17507,1881
17511,1886
17515,1883
17519,1873
17523,1872
17527,1882
17531,1883
17535,1872
17539,1868
17543,1872
17547,1884
17551,1873
17555,1871
17559,1874
17563,1886
17567,1883
17571,1879
17575,1887
17579,1891
17583,1887
17587,1877
17591,1888
17595,1899
17599,1899
17603,1885
17607,1887
17611,1899
17615,1892
17619,1886
17623,1885
17627,1894
17631,1904
17635,1891
17639,1898
17643,1899
17647,1905
17651,1904
17655,1901
17659,1906
17663,1909
17667,1904
17671,1907
17675,1904
17679,1910
17683,1911
17687,1908
17691,1907
17695,1919
17699,1918
17703,1911
17707,1911
17711,1925
17715,1922
17719,1911
17723,1919
17727,1925
17731,1932
17735,1931
17739,1936
17743,1952
17747,1963
17751,1975
17755,1977
17759,1990
17763,2002
17767,2000
17771,1999
17775,2002
17779,1998
17783,1981
17787,1961
17791,1952
17795,1939
17799,1933
17803,1932
17807,1936
17811,1937
17815,1937
17819,1936
17823,1936
17827,1942
17831,1936
17835,1937
17839,1933
17843,1941
17847,1943
17851,1942
17855,1936
17859,1942
17863,1919
17867,1827
17871,1742
17875,1808
17879,2113
17883,2627
17887,3299
17891,4095
17895,4095
17899,3550
17903,2949
17907,2304
17911,2018
17915,1925
17919,1942
17923,1911
17927,1952
17931,1934
17935,1893
17939,1870
17943,1880
17947,1887
17951,1863
17955,1866
17959,1875
17963,1878
17967,1878
17971,1877
17975,1887
17979,1894
17983,1904
17987,1872
17991,1889
17995,1899
17999,1901
18003,1901
18007,1905
18011,1911
18015,1918
18019,1905
18023,1919
18027,1928
18031,1927
18035,1935
18039,1935
18043,1942
18047,1950
18051,1946
18055,1953
18059,1968
18063,1984
18067,1985
18071,1985
18075,1998
18079,2013
18083,2007
18087,2014
18091,2022
18095,2037
18099,2047
18103,2061
18107,2067
18111,2090
18115,2107
18119,2106
18123,2117
18127,2130
18131,2135
18135,2140
18139,2149
18143,2164
18147,2164
18151,2166
18155,2167
18159,2176
18163,2164
18167,2145
18171,2123
18175,2096
18179,2070
18183,2033
18187,2000
18191,1977
18195,1947
18199,1925
18203,1891
18207,1877
18211,1878
18215,1872
18219,1856
18223,1856
18227,1863
18231,1865
18235,1854
18239,1855
18243,1863
18247,1872
18251,1869
18255,1863
18259,1869
18263,1874
18267,1881
18271,1872
18275,1877
18279,1887
18283,1882
18287,1872
18291,1884
18295,1879
18299,1887
18303,1881
18307,1879
18311,1891
18315,1888
18319,1881
18323,1878
18327,1889
18331,1888
18335,1890
18339,1882
18343,1888
18347,1893
18351,1887
18355,1880
18359,1888
18363,1888
18367,1886
18371,1872
18375,1885
18379,1886
18383,1890
18387,1883
18391,1886
18395,1898
18399,1891
18403,1889
18407,1887
18411,1886
18415,1888
18419,1892
18423,1891
18427,1904
18431,1907
18435,1901
18439,1892
18443,1906
18447,1909
18451,1904
18455,1889
18459,1899
18463,1910
18467,1904
18471,1904
18475,1904
18479,1913
18483,1909
18487,1920
18491,1918
18495,1921
18499,1925
18503,1930
18507,1926
18511,1920
18515,1927
18519,1917
18523,1917
18527,1932
18531,1936
18535,1930
18539,1930
18543,1933
18547,1943
18551,1936
18555,1935
18559,1935
18563,1942
18567,1936
18571,1937
18575,1938
18579,1946
18583,1948
18587,1943
18591,1943
18595,1941
18599,1938
18603,1943
18607,1943
18611,1951
18615,1951
18619,1946
18623,1947
18627,1957
18631,1979
18635,1994
18639,1995
18643,2000
18647,2015
18651,2014
18655,2009
18659,2006
18663,1995
18667,1986
18671,1972
18675,1965
18679,1955
18683,1941
18687,1946
18691,1943
18695,1955
18699,1947
18703,1942
18707,1941
18711,1947
18715,1952
18719,1952
18723,1948
18727,1957
18731,1953
18735,1955
18739,1950
18743,1929
18747,1853
18751,1755
18755,1749
18759,2000
18763,2526
18767,3235
18771,4095
18775,4095
18779,4095
18783,3314
18787,2587
18791,2143
18795,1983
18799,1957
18803,1955
18807,1875
18811,1941
18815,1895
18819,1887
18823,1863
18827,1872
18831,1869
18835,1819
18839,1871
18843,1879
18847,1872
18851,1901
18855,1861
18859,1904
18863,1883
18867,1887
18871,1881
18875,1884
18879,1896
18883,1898
18887,1896
18891,1902
18895,1899
18899,1906
18903,1897
18907,1906
18911,1923
18915,1921
18919,1923
18923,1934
18927,1942
18931,1940
18935,1943
18939,1947
18943,1961
18947,1978
18951,1980
18955,1977
18959,1994
18963,2011
18967,2013
18971,2015
18975,2022
18979,2039
18983,2057
18987,2064
18991,2091
18995,2099
18999,2097
19003,2096
19007,2113
19011,2128
19015,2132
19019,2139
19023,2149
19027,2165
19031,2176
19035,2169
19039,2160
19043,2165
19047,2163
19051,2139
19055,2112
19059,2091
19063,2064
19067,2015
19071,1974
19075,1940
19079,1929
19083,1913
19087,1883
19091,1872
19095,1867
19099,1857
19103,1847
19107,1840
19111,1846
19115,1851
19119,1847
19123,1847
19127,1860
19131,1861
19135,1853
19139,1854
19143,1861
19147,1859
19151,1868
19155,1862
19159,1865
19163,1871
19167,1868
19171,1866
19175,1871
19179,1876
19183,1872
19187,1867
19191,1874
19195,1885
19199,1876
19203,1872
19207,1871
19211,1879
19215,1873
19219,1872
19223,1872
19227,1882
19231,1886
19235,1876
19239,1872
19243,1879
19247,1885
19251,1882
19255,1873
19259,1877
19263,1894
19267,1885
19271,1874
19275,1879
19279,1885
19283,1883
19287,1881
19291,1886
19295,1888
19299,1899
19303,1893
19307,1888
19311,1899
19315,1897
19319,1887
19323,1884
19327,1901
19331,1904
19335,1897
19339,1897
19343,1901
19347,1903
19351,1899
19355,1893
19359,1904
19363,1909
19367,1910
19371,1905
19375,1915
19379,1916
19383,1918
19387,1915
19391,1914
19395,1919
19399,1920
19403,1913
19407,1915
19411,1928
19415,1925
19419,1920
19423,1920
19427,1931
19431,1924
19435,1920
19439,1920
19443,1935
19447,1939
19451,1934
19455,1925
19459,1924
19463,1936
19467,1939
19471,1930
19475,1936
19479,1936
19483,1935
19487,1933
19491,1935
19495,1942
19499,1936
19503,1936
19507,1936
19511,1939
19515,1950
19519,1941
19523,1943
19527,1959
19531,1963
19535,1949
19539,1946
19543,1947
19547,1950
19551,1955
19555,1970
19559,1998
19563,2000
19567,2011
19571,2011
19575,2029
19579,2033
19583,2030
19587,2005
19591,1995
19595,1989
19599,1976
19603,1953
19607,1950
19611,1957
19615,1962
19619,1950
19623,1949
19627,1952
19631,1955
19635,1954
19639,1957
19643,1963
19647,1959
19651,1955
19655,1955
19659,1954
19663,1968
19667,1939
19671,1879
19675,1782
19679,1750
19683,1931
19687,2373
19691,3025
19695,4004
19699,4095
19703,4095
19707,3408
19711,2677
19715,2204
19719,1999
19723,1959
19727,1967
19731,1961
19735,1936
19739,1905
19743,1893
19747,1885
19751,1865
19755,1862
19759,1858
19763,1867
19767,1867
19771,1869
19775,1872
19779,1873
19783,1883
19787,1875
19791,1888
19795,1894
19799,1888
19803,1898
19807,1899
19811,1911
19815,1911
19819,1903
19823,1901
19827,1919
19831,1951
19835,1909
19839,1926
19843,1951
19847,1970
19851,1945
19855,1946
19859,1954
19863,1968
19867,2000
19871,1968
19875,1968
19879,2009
19883,2010
19887,1986
19891,2027
19895,2032
19899,2041
19903,2053
19907,2067
19911,2081
19915,2083
19919,2098
19923,2117
19927,2112
19931,2123
19935,2115
19939,2128
19943,2138
19947,2158
19951,2155
19955,2155
19959,2163
19963,2170
19967,2171
19971,2156
19975,2139
19979,2128
19983,2096
19987,2058
19991,2022
19995,2001
