Timestamp,ECG Data
4,1883
7,1890
11,1901
15,1899
19,1909
23,1904
27,1903
31,1904
35,1912
39,1923
43,1933
47,1937
51,1951
55,1961
59,1975
63,1969
67,1995
71,2000
75,2010
79,2017
83,2029
87,2042
91,2064
95,2079
99,2096
103,2119
107,2128
111,2131
115,2141
119,2160
123,2171
127,2177
131,2176
135,2186
139,2196
143,2191
147,2169
151,2151
155,2124
159,2086
163,2041
167,2007
171,1969
175,1942
179,1912
183,1888
187,1874
191,1872
195,1849
199,1837
203,1836
207,1835
211,1830
215,1829
219,1831
223,1839
227,1836
231,1840
235,1840
239,1853
243,1842
247,1843
251,1856
255,1872
259,1863
263,1856
267,1855
271,1867
275,1863
279,1857
283,1863
287,1870
291,1869
295,1857
299,1861
303,1872
307,1872
311,1872
315,1870
319,1874
323,1874
327,1872
331,1867
335,1878
339,1878
343,1876
347,1879
351,1885
355,1889
359,1888
363,1883
367,1886
371,1895
375,1894
379,1898
383,1898
387,1898
391,1904
395,1901
399,1894
403,1899
407,1906
411,1902
415,1902
419,1906
423,1904
427,1904
431,1902
435,1909
439,1917
443,1907
447,1904
451,1915
455,1919
459,1920
463,1911
467,1909
471,1917
475,1917
479,1911
483,1914
487,1921
491,1920
495,1923
499,1925
503,1929
507,1923
511,1921
515,1926
519,1927
523,1924
527,1921
531,1921
535,1935
539,1929
543,1931
547,1934
551,1936
555,1947
559,1947
563,1936
567,1954
571,1986
575,2002
579,2002
583,2000
587,2016
591,2026
595,2013
599,2003
603,1998
607,1984
611,1967
615,1941
619,1941
623,1943
627,1948
631,1947
635,1951
639,1950
643,1943
647,1938
651,1941
655,1947
659,1942
663,1938
667,1942
671,1955
675,1954
679,1916
683,1841
687,1792
691,1857
695,2153
699,2685
703,3427
707,4095
711,3996
715,3194
719,2523
723,2111
727,1947
731,1926
735,1946
739,1962
743,1949
747,1926
751,1906
755,1904
759,1891
763,1885
767,1887
771,1886
775,1883
779,1883
783,1887
787,1902
791,1907
795,1904
799,1907
803,1926
807,1927
811,1923
815,1929
819,1939
823,1946
827,1937
831,1939
835,1949
839,1968
843,1963
847,1963
851,1983
855,1983
859,1976
863,1959
867,1979
871,2015
875,2001
879,2043
883,2042
887,2042
891,2101
895,2032
899,2096
903,2115
907,2130
911,2137
915,2146
919,2154
923,2165
927,2171
931,2181
935,2193
939,2192
943,2191
947,2192
951,2209
955,2208
959,2193
963,2167
967,2145
971,2109
975,2064
979,2017
983,1991
987,1967
991,1930
995,1903
999,1879
1003,1872
1007,1860
1011,1845
1015,1840
1019,1846
1023,1853
1027,1853
1031,1844
1035,1845
1039,1843
1043,1840
1047,1843
1051,1849
1055,1855
1059,1855
1063,1851
1067,1862
1071,1873
1075,1879
1079,1875
1083,1872
1087,1872
1091,1872
1095,1873
1099,1879
1103,1886
1107,1883
1111,1885
1115,1885
1119,1887
1123,1883
1127,1877
1131,1879
1135,1884
1139,1889
1143,1885
1147,1885
1151,1890
1155,1895
1159,1893
1163,1887
1167,1891
1171,1891
1175,1893
1179,1883
1183,1891
1187,1893
1191,1891
1195,1891
1199,1898
1203,1903
1207,1898
1211,1889
1215,1886
1219,1891
1223,1898
1227,1894
1231,1895
1235,1897
1239,1904
1243,1898
1247,1893
1251,1904
1255,1907
1259,1908
1263,1907
1267,1904
1271,1907
1275,1904
1279,1895
1283,1904
1287,1917
1291,1908
1295,1907
1299,1914
1303,1926
1307,1927
1311,1921
1315,1920
1319,1946
1323,1973
1327,1978
1331,1983
1335,2000
1339,2001
1343,1991
1347,1983
1351,1981
1355,1973
1359,1966
1363,1936
1367,1924
1371,1921
1375,1931
1379,1930
1383,1936
1387,1936
1391,1936
1395,1931
1399,1921
1403,1933
1407,1933
1411,1920
1415,1928
1419,1933
1423,1939
1427,1936
1431,1892
1435,1817
1439,1778
1443,1872
1447,2213
1451,2771
1455,3519
1459,4095
1463,3771
1467,3044
1471,2445
1475,2069
1479,1936
1483,1930
1487,1948
1491,1938
1495,1924
1499,1904
1503,1887
1507,1886
1511,1875
1515,1872
1519,1873
1523,1869
1527,1863
1531,1872
1535,1885
1539,1888
1543,1886
1547,1883
1551,1895
1555,1905
1559,1906
1563,1910
1567,1919
1571,1923
1575,1926
1579,1929
1583,1941
1587,1946
1591,1946
1595,1939
1599,1950
1603,1957
1607,1968
1611,1970
1615,1978
1619,1991
1623,1999
1627,2002
1631,2015
1635,2033
1639,2045
1643,2044
1647,2059
1651,2080
1655,2098
1659,2110
1663,2111
1667,2127
1671,2142
1675,2151
1679,2159
1683,2165
1687,2183
1691,2187
1695,2179
1699,2192
1703,2203
1707,2198
1711,2177
1715,2139
1719,2116
1723,2079
1727,2025
1731,1984
1735,1952
1739,1924
1743,1893
1747,1872
1751,1854
1755,1843
1759,1840
1763,1828
1767,1833
1771,1831
1775,1826
1779,1829
1783,1840
1787,1843
1791,1798
1795,1862
1799,1811
1803,1841
1807,1843
1811,1840
1815,1841
1819,1858
1823,1850
1827,1866
1831,1854
1835,1863
1839,1863
1843,1837
1847,1858
1851,1870
1855,1874
1859,1879
1863,1878
1867,1881
1871,1883
1875,1879
1879,1879
1883,1876
1887,1883
1891,1886
1895,1882
1899,1884
1903,1883
1907,1885
1911,1872
1915,1872
1919,1875
1923,1876
1927,1879
1931,1874
1935,1882
1939,1881
1943,1881
1947,1873
1951,1883
1955,1886
1959,1886
1963,1884
1967,1887
1971,1895
1975,1878
1979,1890
1983,1888
1987,1898
1991,1904
1995,1904
1999,1904
2003,1914
2007,1911
2011,1906
2015,1903
2019,1905
2023,1904
2027,1907
2031,1909
2035,1914
2039,1911
2043,1907
2047,1907
2051,1909
2055,1920
2059,1921
2063,1914
2067,1923
2071,1914
2075,1915
2079,1919
2083,1931
2087,1930
2091,1918
2095,1915
2099,1935
2103,1962
2107,1981
2111,1983
2115,1991
2119,2003
2123,1999
2127,1987
2131,1975
2135,1975
2139,1971
2143,1950
2147,1922
2151,1920
2155,1922
2159,1923
2163,1925
2167,1930
2171,1945
2175,1940
2179,1931
2183,1929
2187,1929
2191,1930
2195,1926
2199,1933
2203,1941
2207,1931
2211,1885
2215,1792
2219,1734
2223,1857
2227,2305
2231,3015
2235,4095
2239,4095
2243,4095
2247,4046
2251,3056
2255,2368
2259,2019
2263,1915
2267,1906
2271,1914
2275,1897
2279,1867
2283,1840
2287,1827
2291,1811
2295,1804
2299,1808
2303,1815
2307,1819
2311,1813
2315,1815
2319,1828
2323,1833
2327,1831
2331,1831
2335,1841
2339,1849
2343,1849
2347,1854
2351,1863
2355,1871
2359,1869
2363,1872
2367,1879
2371,1897
2375,1901
2379,1901
2383,1904
2387,1911
2391,1911
2395,1919
2399,1922
2403,1937
2407,1945
2411,1950
2415,1962
2419,1977
2423,1990
2427,1997
2431,2006
2435,2025
2439,2046
2443,2063
2447,2079
2451,2101
2455,2112
2459,2121
2463,2129
2467,2141
2471,2151
2475,2159
2479,2166
2483,2174
2487,2173
2491,2160
2495,2131
2499,2102
2503,2081
2507,2034
2511,1994
2515,1953
2519,1920
2523,1893
2527,1862
2531,1850
2535,1840
2539,1838
2543,1831
2547,1826
2551,1834
2555,1834
2559,1833
2563,1815
2567,1825
2571,1837
2575,1835
2579,1834
2583,1839
2587,1846
2591,1845
2595,1840
2599,1842
2603,1854
2607,1847
2611,1843
2615,1855
2619,1858
2623,1851
2627,1847
2631,1850
2635,1862
2639,1869
2643,1859
2647,1857
2651,1867
2655,1867
2659,1868
2663,1865
2667,1871
2671,1872
2675,1865
2679,1867
2683,1873
2687,1882
2691,1872
2695,1867
2699,1871
2703,1879
2707,1885
2711,1875
2715,1878
2719,1889
2723,1888
2727,1874
2731,1919
2735,1889
2739,1910
2743,1898
2747,1892
2751,1899
2755,1900
2759,1887
2763,1895
2767,1883
2771,1913
2775,1902
2779,1894
2783,1947
2787,1910
2791,1904
2795,1902
2799,1905
2803,1910
2807,1915
2811,1906
2815,1910
2819,1918
2823,1918
2827,1917
2831,1911
2835,1917
2839,1921
2843,1920
2847,1920
2851,1923
2855,1930
2859,1926
2863,1921
2867,1921
2871,1929
2875,1930
2879,1923
2883,1925
2887,1936
2891,1936
2895,1927
2899,1929
2903,1939
2907,1967
2911,1980
2915,1995
2919,2000
2923,2014
2927,2016
2931,2011
2935,2003
2939,1990
2943,1978
2947,1962
2951,1951
2955,1936
2959,1936
2963,1934
2967,1938
2971,1939
2975,1940
2979,1937
2983,1943
2987,1943
2991,1942
2995,1938
2999,1935
3003,1938
3007,1937
3011,1936
3015,1931
3019,1879
3023,1776
3027,1700
3031,1849
3035,2375
3039,3204
3043,4095
3047,4095
3051,4095
3055,4095
3059,3446
3063,2559
3067,2075
3071,1911
3075,1904
3079,1904
3083,1892
3087,1872
3091,1838
3095,1819
3099,1808
3103,1808
3107,1808
3111,1806
3115,1807
3119,1813
3123,1819
3127,1817
3131,1821
3135,1834
3139,1839
3143,1835
3147,1837
3151,1840
3155,1847
3159,1853
3163,1847
3167,1862
3171,1871
3175,1871
3179,1869
3183,1879
3187,1890
3191,1895
3195,1894
3199,1909
3203,1914
3207,1919
3211,1924
3215,1936
3219,1951
3223,1964
3227,1968
3231,1971
3235,1988
3239,2003
3243,2014
3247,2032
3251,2066
3255,2087
3259,2095
3263,2107
3267,2123
3271,2131
3275,2155
3279,2160
3283,2170
3287,2182
3291,2186
3295,2183
3299,2177
3303,2160
3307,2128
3311,2096
3315,2047
3319,2017
3323,1972
3327,1936
3331,1904
3335,1885
3339,1870
3343,1846
3347,1824
3351,1818
3355,1825
3359,1825
3363,1827
3367,1823
3371,1838
3375,1835
3379,1829
3383,1836
3387,1840
3391,1841
3395,1843
3399,1847
3403,1857
3407,1861
3411,1858
3415,1857
3419,1862
3423,1871
3427,1866
3431,1867
3435,1871
3439,1873
3443,1869
3447,1862
3451,1873
3455,1878
3459,1873
3463,1877
3467,1882
3471,1887
3475,1885
3479,1873
3483,1879
3487,1887
3491,1884
3495,1883
3499,1882
3503,1887
3507,1894
3511,1885
3515,1891
3519,1902
3523,1901
3527,1888
3531,1891
3535,1895
3539,1893
3543,1898
3547,1895
3551,1904
3555,1904
3559,1904
3563,1901
3567,1907
3571,1905
3575,1904
3579,1904
3583,1906
3587,1914
3591,1914
3595,1914
3599,1915
3603,1907
3607,1911
3611,1905
3615,1915
3619,1921
3623,1917
3627,1915
3631,1915
3635,1919
3639,1927
3643,1925
3647,1929
3651,1935
3655,1939
3659,1926
3663,1921
3667,1935
3671,1937
3675,1937
3679,1934
3683,1946
3687,1951
3691,1939
3695,1923
3699,1938
3703,1984
3707,1952
3711,1974
3715,1952
3719,1977
3723,2019
3727,2013
3731,2027
3735,2039
3739,2034
3743,2030
3747,2012
3751,2002
3755,1998
3759,1979
3763,1963
3767,1954
3771,1946
3775,1941
3779,1959
3783,1956
3787,1962
3791,1955
3795,1950
3799,1955
3803,1955
3807,1953
3811,1949
3815,1951
3819,1953
3823,1958
3827,1921
3831,1840
3835,1734
3839,1750
3843,2047
3847,2681
3851,3677
3855,4095
3859,4095
3863,4095
3867,3741
3871,2775
3875,2188
3879,1943
3883,1910
3887,1930
3891,1920
3895,1894
3899,1866
3903,1847
3907,1838
3911,1819
3915,1813
3919,1819
3923,1814
3927,1817
3931,1818
3935,1829
3939,1835
3943,1831
3947,1839
3951,1846
3955,1847
3959,1846
3963,1847
3967,1867
3971,1877
3975,1881
3979,1881
3983,1883
3987,1887
3991,1885
3995,1887
3999,1904
4003,1916
4007,1918
4011,1921
4015,1936
4019,1956
4023,1968
4027,1967
4031,1971
4035,1983
4039,1993
4043,2010
4047,2017
4051,2042
4055,2062
4059,2074
4063,2091
4067,2107
4071,2129
4075,2134
4079,2145
4083,2162
4087,2174
4091,2181
4095,2176
4099,2183
4103,2192
4107,2190
4111,2176
4115,2151
4119,2128
4123,2083
4127,2032
4131,1987
4135,1963
4139,1930
4143,1895
4147,1866
4151,1849
4155,1839
4159,1827
4163,1824
4167,1828
4171,1821
4175,1813
4179,1808
4183,1819
4187,1828
4191,1825
4195,1817
4199,1831
4203,1838
4207,1839
4211,1840
4215,1840
4219,1851
4223,1846
4227,1849
4231,1853
4235,1856
4239,1866
4243,1858
4247,1857
4251,1861
4255,1862
4259,1859
4263,1866
4267,1873
4271,1879
4275,1874
4279,1872
4283,1872
4287,1881
4291,1879
4295,1878
4299,1877
4303,1875
4307,1872
4311,1872
4315,1872
4319,1885
4323,1875
4327,1872
4331,1873
4335,1887
4339,1886
4343,1883
4347,1886
4351,1883
4355,1886
4359,1887
4363,1881
4367,1889
4371,1893
4375,1901
4379,1901
4383,1911
4387,1914
4391,1905
4395,1897
4399,1900
4403,1904
4407,1904
4411,1888
4415,1894
4419,1913
4423,1913
4427,1904
4431,1909
4435,1919
4439,1921
4443,1919
4447,1910
4451,1914
4455,1919
4459,1919
4463,1906
4467,1914
4471,1918
4475,1920
4479,1926
4483,1929
4487,1936
4491,1934
4495,1927
4499,1943
4503,1974
4507,1995
4511,1994
4515,2000
4519,2010
4523,2013
4527,2000
4531,1991
4535,1983
4539,1963
4543,1948
4547,1927
4551,1921
4555,1930
4559,1931
4563,1936
4567,1941
4571,1945
4575,1933
4579,1927
4583,1941
4587,1951
4591,1951
4595,1943
4599,1940
4603,1949
4607,1952
4611,1925
4615,1856
4619,1776
4623,1793
4627,2064
4631,2596
4635,3359
4639,4095
4643,4095
4647,3716
4651,2863
4655,2245
4659,1991
4663,1935
4667,1934
4671,1959
4675,1947
4679,1909
4683,1899
4687,1882
4691,1864
4695,1855
4699,1861
4703,1871
4707,1875
4711,1867
4715,1869
4719,1878
4723,1876
4727,1876
4731,1882
4735,1896
4739,1895
4743,1900
4747,1904
4751,1915
4755,1911
4759,1922
4763,1931
4767,1936
4771,1938
4775,1937
4779,1943
4783,1964
4787,1973
4791,1981
4795,1983
4799,1988
4803,2002
4807,2007
4811,2000
4815,2021
4819,2044
4823,2055
4827,2061
4831,2077
4835,2090
4839,2111
4843,2114
4847,2123
4851,2139
4855,2154
4859,2161
4863,2175
4867,2187
4871,2193
4875,2192
4879,2185
4883,2195
4887,2202
4891,2194
4895,2171
4899,2147
4903,2109
4907,2074
4911,2029
4915,1994
4919,1965
4923,1936
4927,1897
4931,1872
4935,1871
4939,1862
4943,1848
4947,1837
4951,1841
4955,1842
4959,1833
4963,1825
4967,1837
4971,1840
4975,1834
4979,1836
4983,1839
4987,1843
4991,1855
4995,1845
4999,1853
5003,1866
5007,1869
5011,1871
5015,1878
5019,1879
5023,1873
5027,1869
5031,1872
5035,1887
5039,1898
5043,1889
5047,1888
5051,1887
5055,1887
5059,1885
5063,1890
5067,1904
5071,1900
5075,1893
5079,1891
5083,1898
5087,1909
5091,1902
5095,1892
5099,1904
5103,1909
5107,1915
5111,1904
5115,1902
5119,1906
5123,1901
5127,1899
5131,1907
5135,1918
5139,1915
5143,1904
5147,1902
5151,1906
5155,1911
5159,1904
5163,1904
5167,1913
5171,1915
5175,1910
5179,1910
5183,1919
5187,1924
5191,1926
5195,1914
5199,1917
5203,1925
5207,1936
5211,1928
5215,1925
5219,1929
5223,1927
5227,1923
5231,1923
5235,1931
5239,1930
5243,1917
5247,1926
5251,1938
5255,1963
5259,1975
5263,1983
5267,1999
5271,2003
5275,1997
5279,1982
5283,1975
5287,1971
5291,1962
5295,1950
5299,1936
5303,1931
5307,1931
5311,1926
5315,1936
5319,1940
5323,1937
5327,1933
5331,1931
5335,1946
5339,1941
5343,1935
5347,1935
5351,1942
5355,1942
5359,1936
5363,1925
5367,1890
5371,1819
5375,1795
5379,1936
5383,2339
5387,2917
5391,3696
5395,4095
5399,3591
5403,2889
5407,2313
5411,2000
5415,1932
5419,1936
5423,1952
5427,1947
5431,1934
5435,1914
5439,1902
5443,1882
5447,1877
5451,1874
5455,1885
5459,1891
5463,1879
5467,1887
5471,1890
5475,1891
5479,1888
5483,1900
5487,1910
5491,1906
5495,1906
5499,1925
5503,1935
5507,1936
5511,1930
5515,1936
5519,1947
5523,1949
5527,1950
5531,1964
5535,1964
5539,1969
5543,1981
5547,1986
5551,2000
5555,2005
5559,2006
5563,2021
5567,2058
5571,2056
5575,2061
5579,2074
5583,2085
5587,2096
5591,2099
5595,2105
5599,2122
5603,2144
5607,2150
5611,2181
5615,2192
5619,2183
5623,2173
5627,2191
5631,2196
5635,2209
5639,2208
5643,2191
5647,2179
5651,2164
5655,2128
5659,2096
5663,2032
5667,1989
5671,1968
5675,1931
5679,1903
5683,1879
5687,1868
5691,1855
5695,1840
5699,1845
5703,1834
5707,1835
5711,1827
5715,1838
5719,1840
5723,1839
5727,1830
5731,1832
5735,1841
5739,1846
5743,1839
5747,1838
5751,1844
5755,1858
5759,1855
5763,1853
5767,1858
5771,1856
5775,1856
5779,1856
5783,1872
5787,1872
5791,1868
5795,1869
5799,1868
5803,1880
5807,1878
5811,1872
5815,1882
5819,1881
5823,1885
5827,1879
5831,1879
5835,1889
5839,1877
5843,1881
5847,1875
5851,1883
5855,1887
5859,1883
5863,1872
5867,1887
5871,1887
5875,1881
5879,1875
5883,1881
5887,1890
5891,1895
5895,1886
5899,1883
5903,1890
5907,1885
5911,1887
5915,1890
5919,1898
5923,1889
5927,1889
5931,1891
5935,1892
5939,1895
5943,1890
5947,1898
5951,1906
5955,1908
5959,1905
5963,1905
5967,1918
5971,1917
5975,1907
5979,1904
5983,1915
5987,1924
5991,1920
5995,1911
5999,1907
6003,1935
6007,1949
6011,1963
6015,1968
6019,1977
6023,1988
6027,1985
6031,1984
6035,1989
6039,1971
6043,1962
6047,1947
6051,1931
6055,1922
6059,1918
6063,1921
6067,1926
6071,1934
6075,1934
6079,1932
6083,1933
6087,1930
6091,1932
6095,1922
6099,1923
6103,1929
6107,1929
6111,1929
6115,1909
6119,1840
6123,1744
6127,1744
6131,2027
6135,2624
6139,3457
6143,4095
6147,4095
6151,4095
6155,3335
6159,2544
6163,2098
6167,1948
6171,1927
6175,1919
6179,1903
6183,1885
6187,1870
6191,1843
6195,1826
6199,1819
6203,1824
6207,1819
6211,1810
6215,1815
6219,1829
6223,1827
6227,1831
6231,1839
6235,1841
6239,1846
6243,1845
6247,1852
6251,1867
6255,1872
6259,1874
6263,1872
6267,1889
6271,1890
6275,1879
6279,1890
6283,1894
6287,1904
6291,1909
6295,1915
6299,1924
6303,1936
6307,1945
6311,1947
6315,1958
6319,1968
6323,1972
6327,1982
6331,1999
6335,2018
6339,2034
6343,2047
6347,2063
6351,2085
6355,2097
6359,2106
6363,2112
6367,2130
6371,2143
6375,2147
6379,2158
6383,2165
6387,2176
6391,2175
6395,2162
6399,2156
6403,2129
6407,2099
6411,2047
6415,2011
6419,1984
6423,1945
6427,1918
6431,1895
6435,1873
6439,1855
6443,1837
6447,1834
6451,1840
6455,1833
6459,1826
6463,1830
6467,1837
6471,1837
6475,1838
6479,1833
6483,1841
6487,1837
6491,1840
6495,1850
6499,1855
6503,1856
6507,1855
6511,1867
6515,1809
6519,1856
6523,1856
6527,1867
6531,1871
6535,1885
6539,1879
6543,1866
6547,1869
6551,1862
6555,1884
6559,1867
6563,1872
6567,1873
6571,1904
6575,1876
6579,1872
6583,1878
6587,1877
6591,1878
6595,1878
6599,1879
6603,1889
6607,1883
6611,1878
6615,1881
6619,1891
6623,1885
6627,1887
6631,1886
6635,1890
6639,1897
6643,1895
6647,1898
6651,1904
6655,1904
6659,1894
6663,1890
6667,1903
6671,1898
6675,1899
6679,1898
6683,1911
6687,1918
6691,1915
6695,1919
6699,1912
6703,1917
6707,1915
6711,1918
6715,1927
6719,1934
6723,1925
6727,1925
6731,1930
6735,1934
6739,1936
6743,1927
6747,1931
6751,1933
6755,1936
6759,1922
6763,1930
6767,1940
6771,1946
6775,1947
6779,1936
6783,1936
6787,1937
6791,1964
6795,1991
6799,2005
6803,2013
6807,2021
6811,2032
6815,2024
6819,2023
6823,2010
6827,1984
6831,1984
6835,1974
6839,1952
6843,1936
6847,1936
6851,1947
6855,1953
6859,1948
6863,1954
6867,1968
6871,1961
6875,1953
6879,1958
6883,1951
6887,1954
6891,1952
6895,1953
6899,1950
6903,1890
6907,1784
6911,1709
6915,1855
6919,2354
6923,3137
6927,4095
6931,4095
6935,4095
6939,4095
6943,3284
6947,2481
6951,2065
6955,1934
6959,1911
6963,1917
6967,1905
6971,1879
6975,1847
6979,1826
6983,1818
6987,1816
6991,1815
6995,1810
6999,1822
7003,1829
7007,1818
7011,1828
7015,1828
7019,1840
7023,1840
7027,1838
7031,1853
7035,1857
7039,1857
7043,1851
7047,1860
7051,1870
7055,1870
7059,1871
7063,1878
7067,1893
7071,1904
7075,1901
7079,1903
7083,1918
7087,1926
7091,1931
7095,1934
7099,1946
7103,1963
7107,1967
7111,1968
7115,1984
7119,1999
7123,2011
7127,2029
7131,2055
7135,2076
7139,2089
7143,2096
7147,2113
7151,2130
7155,2141
7159,2151
7163,2162
7167,2179
7171,2187
7175,2187
7179,2186
7183,2181
7187,2166
7191,2133
7195,2101
7199,2070
7203,2020
7207,1974
7211,1936
7215,1914
7219,1894
7223,1872
7227,1852
7231,1850
7235,1850
7239,1840
7243,1833
7247,1838
7251,1846
7255,1844
7259,1841
7263,1839
7267,1841
7271,1840
7275,1842
7279,1845
7283,1855
7287,1859
7291,1852
7295,1855
7299,1859
7303,1863
7307,1868
7311,1867
7315,1871
7319,1879
7323,1874
7327,1866
7331,1872
7335,1882
7339,1883
7343,1875
7347,1876
7351,1883
7355,1883
7359,1878
7363,1886
7367,1893
7371,1891
7375,1894
7379,1894
7383,1893
7387,1894
7391,1890
7395,1897
7399,1897
7403,1899
7407,1899
7411,1903
7415,1907
7419,1914
7423,1909
7427,1906
7431,1915
7435,1918
7439,1909
7443,1907
7447,1913
7451,1915
7455,1911
7459,1906
7463,1906
7467,1915
7471,1915
7475,1910
7479,1905
7483,1920
7487,1922
7491,1919
7495,1918
7499,1922
7503,1923
7507,1923
7511,1923
7515,1931
7519,1926
7523,1931
7527,1925
7531,1932
7535,1939
7539,1935
7543,1925
7547,1935
7551,1936
7555,1937
7559,1936
7563,1939
7567,1947
7571,1953
7575,1947
7579,1936
7583,1938
7587,1963
7591,1994
7595,2002
7599,2013
7603,2019
7607,2030
7611,2032
7615,1989
7619,2000
7623,1990
7627,1968
7631,1957
7635,1949
7639,1943
7643,1943
7647,1946
7651,1958
7655,1955
7659,1949
7663,1946
7667,1952
7671,1957
7675,1949
7679,1949
7683,1955
7687,1965
7691,1962
7695,1948
7699,1905
7703,1798
7707,1712
7711,1807
7715,2282
7719,3062
7723,4095
7727,4095
7731,4095
7735,4095
7739,3465
7743,2592
7747,2101
7751,1942
7755,1928
7759,1924
7763,1915
7767,1890
7771,1865
7775,1837
7779,1823
7783,1821
7787,1819
7791,1811
7795,1809
7799,1821
7803,1835
7807,1834
7811,1822
7815,1834
7819,1840
7823,1840
7827,1840
7831,1856
7835,1866
7839,1867
7843,1867
7847,1872
7851,1881
7855,1879
7859,1881
7863,1887
7867,1899
7871,1904
7875,1909
7879,1915
7883,1921
7887,1929
7891,1935
7895,1946
7899,1965
7903,1968
7907,1968
7911,1974
7915,2000
7919,2019
7923,2032
7927,2037
7931,2064
7935,2085
7939,2102
7943,2110
7947,2119
7951,2139
7955,2150
7959,2157
7963,2163
7967,2187
7971,2186
7975,2178
7979,2167
7983,2160
7987,2135
7991,2100
7995,2062
7999,2016
8003,1983
8007,1945
8011,1914
8015,1882
8019,1865
8023,1846
8027,1840
8031,1835
8035,1835
8039,1826
8043,1811
8047,1818
8051,1822
8055,1822
8059,1815
8063,1825
8067,1831
8071,1834
8075,1830
8079,1829
8083,1839
8087,1840
8091,1842
8095,1843
8099,1850
8103,1856
8107,1862
8111,1854
8115,1865
8119,1863
8123,1861
8127,1856
8131,1867
8135,1872
8139,1872
8143,1869
8147,1872
8151,1871
8155,1872
8159,1866
8163,1872
8167,1879
8171,1879
8175,1872
8179,1874
8183,1872
8187,1877
8191,1872
8195,1872
8199,1881
8203,1872
8207,1872
8211,1866
8215,1878
8219,1882
8223,1878
8227,1883
8231,1889
8235,1892
8239,1887
8243,1876
8247,1877
8251,1884
8255,1884
8259,1883
8263,1886
8267,1894
8271,1894
8275,1889
8279,1891
8283,1904
8287,1904
8291,1899
8295,1894
8299,1899
8303,1909
8307,1904
8311,1897
8315,1904
8319,1904
8323,1906
8327,1904
8331,1909
8335,1916
8339,1911
8343,1907
8347,1918
8351,1916
8355,1919
8359,1921
8363,1932
8367,1936
8371,1925
8375,1923
8379,1946
8383,1984
8387,1997
8391,1997
8395,2007
8399,2018
8403,2017
8407,2000
8411,1981
8415,1971
8419,1968
8423,1952
8427,1930
8431,1925
8435,1935
8439,1933
8443,1931
8447,1936
8451,1940
8455,1942
8459,1936
8463,1935
8467,1949
8471,1946
8475,1943
8479,1949
8483,1946
8487,1936
8491,1875
8495,1787
8499,1735
8503,1871
8507,2303
8511,2986
8515,4095
8519,4095
8523,4095
8527,3567
8531,2736
8535,2182
8539,1967
8543,1922
8547,1939
8551,1967
8555,1882
8559,1881
8563,1869
8567,1861
8571,1857
8575,1847
8579,1840
8583,1843
8587,1844
8591,1846
8595,1853
8599,1872
8603,1872
8607,1874
8611,1870
8615,1876
8619,1884
8623,1881
8627,1886
8631,1905
8635,1915
8639,1914
8643,1909
8647,1920
8651,1919
8655,1923
8659,1924
8663,1941
8667,1952
8671,1955
8675,1953
8679,1961
8683,1971
8687,1986
8691,1994
8695,2007
8699,2029
8703,2044
8707,2045
8711,2046
8715,2071
8719,2095
8723,2102
8727,2103
8731,2122
8735,2138
8739,2147
8743,2155
8747,2171
8751,2177
8755,2176
8759,2175
8763,2173
8767,2183
8771,2173
8775,2159
8779,2137
8783,2112
8787,2067
8791,2016
8795,1971
8799,1947
8803,1918
8807,1895
8811,1867
8815,1863
8819,1856
8823,1846
8827,1837
8831,1838
8835,1840
8839,1849
8843,1837
8847,1845
8851,1856
8855,1855
8859,1845
8863,1844
8867,1852
8871,1855
8875,1851
8879,1855
8883,1863
8887,1867
8891,1871
8895,1865
8899,1872
8903,1867
8907,1863
8911,1860
8915,1871
8919,1877
8923,1873
8927,1871
8931,1876
8935,1881
8939,1874
8943,1874
8947,1877
8951,1886
8955,1879
8959,1871
8963,1875
8967,1887
8971,1887
8975,1873
8979,1875
8983,1884
8987,1888
8991,1885
8995,1890
8999,1901
9003,1890
9007,1883
9011,1883
9015,1891
9019,1897
9023,1889
9027,1893
9031,1891
9035,1899
9039,1891
9043,1887
9047,1901
9051,1908
9055,1910
9059,1904
9063,1904
9067,1907
9071,1911
9075,1908
9079,1913
9083,1914
9087,1904
9091,1904
9095,1910
9099,1919
9103,1921
9107,1915
9111,1919
9115,1924
9119,1936
9123,1934
9127,1942
9131,1970
9135,1987
9139,1989
9143,1982
9147,1993
9151,2000
9155,2001
9159,1991
9163,1980
9167,1969
9171,1954
9175,1936
9179,1927
9183,1936
9187,1933
9191,1921
9195,1921
9199,1929
9203,1936
9207,1933
9211,1927
9215,1927
9219,1929
9223,1935
9227,1929
9231,1938
9235,1948
9239,1923
9243,1865
9247,1805
9251,1818
9255,2027
9259,2470
9263,3111
9267,3923
9271,3984
9275,3293
9279,2637
9283,2171
9287,1972
9291,1936
9295,1942
9299,1961
9303,1957
9307,1936
9311,1916
9315,1909
9319,1897
9323,1878
9327,1875
9331,1895
9335,1899
9339,1895
9343,1895
9347,1904
9351,1904
9355,1910
9359,1907
9363,1918
9367,1934
9371,1937
9375,1936
9379,1940
9383,1951
9387,1949
9391,1942
9395,1954
9399,1969
9403,1969
9407,1969
9411,1976
9415,1997
9419,2000
9423,2003
9427,2003
9431,2025
9435,2034
9439,2047
9443,2047
9447,2064
9451,2079
9455,2082
9459,2096
9463,2103
9467,2128
9471,2132
9475,2142
9479,2145
9483,2176
9487,2171
9491,2163
9495,2202
9499,2165
9503,2155
9507,2163
9511,2207
9515,2194
9519,2191
9523,2165
9527,2137
9531,2107
9535,2069
9539,2018
9543,1979
9547,1948
9551,1922
9555,1887
9559,1872
9563,1863
9567,1859
9571,1846
9575,1830
9579,1839
9583,1841
9587,1843
9591,1846
9595,1842
9599,1841
9603,1845
9607,1840
9611,1840
9615,1847
9619,1855
9623,1846
9627,1841
9631,1857
9635,1860
9639,1862
9643,1871
9647,1873
9651,1882
9655,1874
9659,1879
9663,1885
9667,1888
9671,1882
9675,1872
9679,1877
9683,1887
9687,1889
9691,1883
9695,1888
9699,1887
9703,1887
9707,1884
9711,1883
9715,1885
9719,1888
9723,1884
9727,1891
9731,1902
9735,1900
9739,1888
9743,1882
9747,1893
9751,1898
9755,1892
9759,1894
9763,1901
9767,1907
9771,1899
9775,1886
9779,1891
9783,1901
9787,1899
9791,1894
9795,1900
9799,1904
9803,1906
9807,1900
9811,1894
9815,1904
9819,1904
9823,1900
9827,1903
9831,1909
9835,1918
9839,1916
9843,1905
9847,1910
9851,1925
9855,1941
9859,1959
9863,1971
9867,1984
9871,1985
9875,1981
9879,1981
9883,1977
9887,1963
9891,1947
9895,1939
9899,1934
9903,1920
9907,1910
9911,1909
9915,1920
9919,1927
9923,1927
9927,1922
9931,1917
9935,1921
9939,1917
9943,1914
9947,1920
9951,1934
9955,1927
9959,1927
9963,1909
9967,1842
9971,1762
9975,1776
9979,2030
9983,2539
9987,3229
9991,4095
9995,4095
9999,3454
10003,2736
10007,2218
10011,1989
10015,1943
10019,1945
10023,1936
10027,1920
10031,1909
10035,1898
10039,1874
10043,1867
10047,1867
10051,1869
10055,1857
10059,1855
10063,1869
10067,1872
10071,1875
10075,1870
10079,1872
10083,1881
10087,1883
10091,1884
10095,1892
10099,1904
10103,1917
10107,1911
10111,1918
10115,1920
10119,1923
10123,1919
10127,1923
10131,1934
10135,1943
10139,1947
10143,1953
10147,1961
10151,1972
10155,1982
10159,1984
10163,1999
10167,2007
10171,2019
10175,2026
10179,2039
10183,2062
10187,2071
10191,2081
10195,2097
10199,2114
10203,2130
10207,2141
10211,2145
10215,2154
10219,2173
10223,2173
10227,2181
10231,2190
10235,2193
10239,2185
10243,2174
10247,2156
10251,2128
10255,2095
10259,2055
10263,2013
10267,1979
10271,1940
10275,1903
10279,1878
10283,1870
10287,1856
10291,1843
10295,1842
10299,1846
10303,1843
10307,1835
10311,1839
10315,1838
10319,1840
10323,1838
10327,1840
10331,1846
10335,1854
10339,1853
10343,1857
10347,1862
10351,1872
10355,1859
10359,1856
10363,1862
10367,1872
10371,1870
10375,1871
10379,1877
10383,1885
10387,1885
10391,1876
10395,1879
10399,1902
10403,1892
10407,1936
10411,1883
10415,1898
10419,1883
10423,1887
10427,1881
10431,1886
10435,1889
10439,1887
10443,1875
10447,1890
10451,1889
10455,1888
10459,1904
10463,1895
10467,1904
10471,1899
10475,1892
10479,1895
10483,1902
10487,1895
10491,1908
10495,1904
10499,1904
10503,1901
10507,1901
10511,1901
10515,1904
10519,1904
10523,1904
10527,1904
10531,1909
10535,1913
10539,1905
10543,1900
10547,1909
10551,1918
10555,1916
10559,1917
10563,1921
10567,1923
10571,1918
10575,1915
10579,1914
10583,1913
10587,1936
10591,1966
10595,1981
10599,1993
10603,2001
10607,2001
10611,2000
10615,1998
10619,1986
10623,1971
10627,1961
10631,1947
10635,1938
10639,1933
10643,1931
10647,1935
10651,1937
10655,1933
10659,1926
10663,1935
10667,1936
10671,1936
10675,1930
10679,1933
10683,1937
10687,1935
10691,1936
10695,1936
10699,1901
10703,1799
10707,1714
10711,1799
10715,2224
10719,2927
10723,4003
10727,4095
10731,4095
10735,4095
10739,3112
10743,2394
10747,2033
10751,1936
10755,1930
10759,1917
10763,1905
10767,1888
10771,1862
10775,1843
10779,1838
10783,1829
10787,1826
10791,1823
10795,1831
10799,1837
10803,1842
10807,1838
10811,1841
10815,1845
10819,1853
10823,1858
10827,1857
10831,1871
10835,1875
10839,1871
10843,1875
10847,1885
10851,1893
10855,1895
10859,1891
10863,1898
10867,1904
10871,1906
10875,1907
10879,1917
10883,1926
10887,1931
10891,1935
10895,1940
10899,1957
10903,1968
10907,1974
10911,1994
10915,2011
10919,2030
10923,2037
10927,2060
10931,2079
10935,2093
10939,2105
10943,2113
10947,2126
10951,2141
10955,2149
10959,2149
10963,2167
10967,2177
10971,2178
10975,2173
10979,2163
10983,2143
10987,2103
10991,2064
10995,2032
10999,2002
11003,1968
11007,1932
11011,1898
11015,1872
11019,1859
11023,1842
11027,1840
11031,1840
11035,1837
11039,1825
11043,1830
11047,1841
11051,1843
11055,1842
11059,1841
11063,1842
11067,1850
11071,1842
11075,1840
11079,1851
11083,1859
11087,1858
11091,1857
11095,1856
11099,1870
11103,1872
11107,1866
11111,1870
11115,1871
11119,1875
11123,1869
11127,1867
11131,1877
11135,1878
11139,1874
11143,1872
11147,1881
11151,1885
11155,1881
11159,1881
11163,1884
11167,1894
11171,1888
11175,1883
11179,1891
11183,1900
11187,1900
11191,1891
11195,1901
11199,1904
11203,1904
11207,1894
11211,1891
11215,1899
11219,1903
11223,1901
11227,1892
11231,1903
11235,1904
11239,1899
11243,1902
11247,1911
11251,1917
11255,1906
11259,1904
11263,1916
11267,1917
11271,1913
11275,1911
11279,1917
11283,1925
11287,1924
11291,1920
11295,1927
11299,1932
11303,1935
11307,1925
11311,1923
11315,1936
11319,1942
11323,1929
11327,1933
11331,1939
11335,1942
11339,1935
11343,1935
11347,1950
11351,1971
11355,1993
11359,1984
11363,2003
11367,2031
11371,2043
11375,2014
11379,2005
11383,2000
11387,1981
11391,1968
11395,1936
11399,1936
11403,1935
11407,1936
11411,1939
11415,1948
11419,1942
11423,1937
11427,1937
11431,1939
11435,1939
11439,1936
11443,1936
11447,1938
11451,1948
11455,1943
11459,1935
11463,1894
11467,1796
11471,1721
11475,1822
11479,2286
11483,3036
11487,4095
11491,4095
11495,4095
11499,4095
11503,3344
11507,2512
11511,2065
11515,1933
11519,1922
11523,1921
11527,1905
11531,1887
11535,1854
11539,1839
11543,1827
11547,1828
11551,1823
11555,1809
11559,1812
11563,1823
11567,1835
11571,1834
11575,1838
11579,1843
11583,1853
11587,1854
11591,1846
11595,1857
11599,1865
11603,1861
11607,1871
11611,1871
11615,1876
11619,1885
11623,1879
11627,1888
11631,1903
11635,1905
11639,1911
11643,1914
11647,1924
11651,1933
11655,1936
11659,1936
11663,1953
11667,1968
11671,1971
11675,1985
11679,2011
11683,2033
11687,2045
11691,2061
11695,2077
11699,2095
11703,2112
11707,2117
11711,2134
11715,2157
11719,2161
11723,2169
11727,2179
11731,2192
11735,2193
11739,2190
11743,2186
11747,2163
11751,2131
11755,2095
11759,2046
11763,2021
11767,1985
11771,1943
11775,1918
11779,1894
11783,1872
11787,1856
11791,1845
11795,1840
11799,1840
11803,1839
11807,1837
11811,1841
11815,1851
11819,1845
11823,1833
11827,1839
11831,1842
11835,1842
11839,1844
11843,1847
11847,1857
11851,1862
11855,1851
11859,1855
11863,1864
11867,1866
11871,1863
11875,1857
11879,1869
11883,1874
11887,1872
11891,1862
11895,1872
11899,1871
11903,1875
11907,1872
11911,1879
11915,1882
11919,1885
11923,1872
11927,1885
11931,1883
11935,1879
11939,1871
11943,1877
11947,1885
11951,1893
11955,1889
11959,1890
11963,1901
11967,1902
11971,1895
11975,1895
11979,1893
11983,1902
11987,1899
11991,1894
11995,1904
11999,1910
12003,1904
12007,1904
12011,1904
12015,1909
12019,1905
12023,1904
12027,1904
12031,1914
12035,1904
12039,1904
12043,1910
12047,1918
12051,1919
12055,1911
12059,1915
12063,1919
12067,1913
12071,1914
12075,1915
12079,1920
12083,1927
12087,1919
12091,1917
12095,1921
12099,1928
12103,1929
12107,1915
12111,1921
12115,1934
12119,1936
12123,1935
12127,1925
12131,1935
12135,1958
12139,1978
12143,1991
12147,2000
12151,2003
12155,2000
12159,2000
12163,1996
12167,1984
12171,1970
12175,1956
12179,1938
12183,1927
12187,1934
12191,1927
12195,1936
12199,1940
12203,1930
12207,1927
12211,1936
12215,1936
12219,1938
12223,1934
12227,1935
12231,1945
12235,1947
12239,1949
12243,1933
12247,1863
12251,1745
12255,1713
12259,1947
12263,2546
12267,3424
12271,4095
12275,4095
12279,4095
12283,3742
12287,2780
12291,2194
12295,1966
12299,1927
12303,1931
12307,1916
12311,1898
12315,1876
12319,1849
12323,1833
12327,1830
12331,1827
12335,1821
12339,1818
12343,1823
12347,1809
12351,1839
12355,1840
12359,1841
12363,1852
12367,1854
12371,1851
12375,1850
12379,1860
12383,1879
12387,1871
12391,1871
12395,1886
12399,1891
12403,1900
12407,1899
12411,1904
12415,1910
12419,1917
12423,1915
12427,1936
12431,1951
12435,1966
12439,1961
12443,1965
12447,1982
12451,1987
12455,1999
12459,2003
12463,2032
12467,2045
12471,2065
12475,2081
12479,2096
12483,2112
12487,2126
12491,2128
12495,2151
12499,2165
12503,2172
12507,2176
12511,2185
12515,2193
12519,2195
12523,2185
12527,2177
12531,2160
12535,2122
12539,2083
12543,2041
12547,2009
12551,1963
12555,1918
12559,1891
12563,1875
12567,1867
12571,1841
12575,1835
12579,1827
12583,1831
12587,1829
12591,1832
12595,1833
12599,1834
12603,1825
12607,1821
12611,1833
12615,1845
12619,1847
12623,1846
12627,1844
12631,1848
12635,1850
12639,1843
12643,1856
12647,1860
12651,1863
12655,1860
12659,1858
12663,1863
12667,1871
12671,1860
12675,1865
12679,1872
12683,1875
12687,1877
12691,1873
12695,1883
12699,1890
12703,1885
12707,1890
12711,1881
12715,1896
12719,1897
12723,1890
12727,1887
12731,1887
12735,1886
12739,1883
12743,1877
12747,1891
12751,1889
12755,1888
12759,1891
12763,1895
12767,1895
12771,1893
12775,1891
12779,1901
12783,1901
12787,1901
12791,1901
12795,1906
12799,1904
12803,1902
12807,1899
12811,1908
12815,1915
12819,1919
12823,1909
12827,1904
12831,1911
12835,1917
12839,1914
12843,1911
12847,1914
12851,1914
12855,1920
12859,1920
12863,1926
12867,1935
12871,1927
12875,1920
12879,1925
12883,1932
12887,1926
12891,1931
12895,1936
12899,1941
12903,1953
12907,1977
12911,1990
12915,2000
12919,2000
12923,2002
12927,2002
12931,1999
12935,1989
12939,1975
12943,1968
12947,1949
12951,1933
12955,1919
12959,1925
12963,1935
12967,1937
12971,1943
12975,1947
12979,1943
12983,1941
12987,1936
12991,1935
12995,1939
12999,1942
13003,1935
13007,1935
13011,1937
13015,1907
13019,1823
13023,1757
13027,1846
13031,2222
13035,2822
13039,3687
13043,4095
13047,4095
13051,3217
13055,2508
13059,2098
13063,1959
13067,1938
13071,1946
13075,1937
13079,1926
13083,1904
13087,1886
13091,1866
13095,1871
13099,1871
13103,1859
13107,1857
13111,1863
13115,1878
13119,1871
13123,1865
13127,1873
13131,1878
13135,1879
13139,1885
13143,1897
13147,1909
13151,1906
13155,1899
13159,1901
13163,1927
13167,1934
13171,1926
13175,1932
13179,1949
13183,1961
13187,1958
13191,1955
13195,1968
13199,1989
13203,1994
13207,1997
13211,2016
13215,2030
13219,2027
13223,2033
13227,2059
13231,2071
13235,2083
13239,2099
13243,2110
13247,2135
13251,2117
13255,2133
13259,2157
13263,2162
13267,2174
13271,2175
13275,2189
13279,2221
13283,2203
13287,2196
13291,2182
13295,2131
13299,2154
13303,2115
13307,2077
13311,2045
13315,2012
13319,1969
13323,1933
13327,1904
13331,1887
13335,1872
13339,1854
13343,1840
13347,1840
13351,1834
13355,1822
13359,1835
13363,1839
13367,1825
13371,1827
13375,1823
13379,1827
13383,1830
13387,1838
13391,1840
13395,1851
13399,1854
13403,1851
13407,1841
13411,1852
13415,1858
13419,1851
13423,1849
13427,1853
13431,1866
13435,1876
13439,1870
13443,1872
13447,1879
13451,1873
13455,1871
13459,1868
13463,1872
13467,1867
13471,1866
13475,1871
13479,1872
13483,1872
13487,1866
13491,1863
13495,1861
13499,1872
13503,1875
13507,1870
13511,1873
13515,1886
13519,1878
13523,1872
13527,1877
13531,1889
13535,1888
13539,1872
13543,1883
13547,1899
13551,1904
13555,1897
13559,1899
13563,1897
13567,1898
13571,1891
13575,1898
13579,1905
13583,1911
13587,1904
13591,1903
13595,1905
13599,1911
13603,1907
13607,1904
13611,1911
13615,1915
13619,1905
13623,1892
13627,1901
13631,1914
13635,1911
13639,1911
13643,1923
13647,1922
13651,1927
13655,1936
13659,1958
13663,1979
13667,1990
13671,1991
13675,1991
13679,1995
13683,1985
13687,1970
13691,1958
13695,1955
13699,1942
13703,1925
13707,1919
13711,1923
13715,1925
13719,1922
13723,1925
13727,1927
13731,1936
13735,1936
13739,1926
13743,1923
13747,1926
13751,1931
13755,1920
13759,1923
13763,1926
13767,1905
13771,1826
13775,1770
13779,1835
13783,2109
13787,2593
13791,3259
13795,3982
13799,3795
13803,3111
13807,2489
13811,2096
13815,1949
13819,1927
13823,1935
13827,1952
13831,1943
13835,1919
13839,1901
13843,1898
13847,1903
13851,1887
13855,1877
13859,1889
13863,1895
13867,1903
13871,1893
13875,1895
13879,1904
13883,1904
13887,1901
13891,1900
13895,1911
13899,1922
13903,1923
13907,1922
13911,1923
13915,1936
13919,1936
13923,1946
13927,1949
13931,1965
13935,1963
13939,1968
13943,1979
13947,1989
13951,1995
13955,2000
13959,2011
13963,2029
13967,2033
13971,2035
13975,2038
13979,2067
13983,2081
13987,2089
13991,2101
13995,2119
13999,2137
14003,2143
14007,2139
14011,2153
14015,2162
14019,2170
14023,2179
14027,2193
14031,2203
14035,2208
14039,2203
14043,2199
14047,2192
14051,2170
14055,2128
14059,2091
14063,2047
14067,2007
14071,1968
14075,1936
14079,1909
14083,1879
14087,1851
14091,1840
14095,1840
14099,1840
14103,1830
14107,1826
14111,1827
14115,1836
14119,1833
14123,1828
14127,1836
14131,1839
14135,1834
14139,1834
14143,1840
14147,1853
14151,1853
14155,1849
14159,1849
14163,1858
14167,1863
14171,1855
14175,1853
14179,1861
14183,1869
14187,1883
14191,1872
14195,1882
14199,1906
14203,1872
14207,1872
14211,1878
14215,1883
14219,1875
14223,1907
14227,1915
14231,1878
14235,1866
14239,1872
14243,1874
14247,1887
14251,1888
14255,1879
14259,1886
14263,1888
14267,1887
14271,1882
14275,1887
14279,1874
14283,1905
14287,1897
14291,1890
14295,1892
14299,1895
14303,1894
14307,1891
14311,1898
14315,1895
14319,1893
14323,1887
14327,1895
14331,1905
14335,1904
14339,1900
14343,1905
14347,1911
14351,1903
14355,1898
14359,1903
14363,1911
14367,1921
14371,1918
14375,1915
14379,1923
14383,1927
14387,1917
14391,1919
14395,1927
14399,1923
14403,1928
14407,1930
14411,1936
14415,1934
14419,1921
14423,1904
14427,1927
14431,1962
14435,1978
14439,1974
14443,1983
14447,2001
14451,2000
14455,1983
14459,1983
14463,1973
14467,1966
14471,1946
14475,1926
14479,1932
14483,1932
14487,1923
14491,1934
14495,1936
14499,1940
14503,1937
14507,1934
14511,1936
14515,1937
14519,1931
14523,1934
14527,1942
14531,1951
14535,1942
14539,1917
14543,1835
14547,1743
14551,1766
14555,2075
14559,2662
14563,3489
14567,4095
14571,4095
14575,3979
14579,3084
14583,2407
14587,2061
14591,1952
14595,1943
14599,1936
14603,1920
14607,1895
14611,1875
14615,1863
14619,1843
14623,1839
14627,1834
14631,1833
14635,1837
14639,1842
14643,1850
14647,1857
14651,1854
14655,1856
14659,1859
14663,1869
14667,1872
14671,1871
14675,1872
14679,1881
14683,1887
14687,1889
14691,1899
14695,1903
14699,1909
14703,1910
14707,1918
14711,1931
14715,1933
14719,1937
14723,1941
14727,1954
14731,1967
14735,1957
14739,1963
14743,1975
14747,1991
14751,2000
14755,2005
14759,2028
14763,2043
14767,2065
14771,2075
14775,2096
14779,2112
14783,2127
14787,2133
14791,2148
14795,2165
14799,2175
14803,2179
14807,2182
14811,2192
14815,2194
14819,2185
14823,2167
14827,2151
14831,2121
14835,2075
14839,2026
14843,1989
14847,1951
14851,1926
14855,1891
14859,1872
14863,1871
14867,1853
14871,1840
14875,1833
14879,1841
14883,1838
14887,1825
14891,1827
14895,1835
14899,1832
14903,1835
14907,1840
14911,1849
14915,1857
14919,1855
14923,1846
14927,1857
14931,1861
14935,1856
14939,1854
14943,1859
14947,1871
14951,1862
14955,1866
14959,1871
14963,1872
14967,1871
14971,1871
14975,1872
14979,1872
14983,1875
14987,1872
14991,1875
14995,1879
14999,1879
15003,1872
15007,1873
15011,1876
15015,1885
15019,1888
15023,1884
15027,1885
15031,1892
15035,1891
15039,1888
15043,1899
15047,1900
15051,1891
15055,1888
15059,1889
15063,1898
15067,1902
15071,1895
15075,1894
15079,1904
15083,1899
15087,1889
15091,1892
15095,1902
15099,1901
15103,1904
15107,1903
15111,1906
15115,1904
15119,1903
15123,1904
15127,1903
15131,1907
15135,1886
15139,1904
15143,1898
15147,1917
15151,1917
15155,1904
15159,1917
15163,1915
15167,1920
15171,1920
15175,1919
15179,1921
15183,1930
15187,1908
15191,1925
15195,1925
15199,1926
15203,1931
15207,1935
15211,1936
15215,1933
15219,1936
15223,1952
15227,1997
15231,2002
15235,2000
15239,2000
15243,2013
15247,2017
15251,2011
15255,2002
15259,1984
15263,1984
15267,1956
15271,1945
15275,1939
15279,1933
15283,1936
15287,1935
15291,1936
15295,1947
15299,1950
15303,1945
15307,1939
15311,1949
15315,1947
15319,1943
15323,1945
15327,1957
15331,1943
15335,1870
15339,1760
15343,1714
15347,1897
15351,2415
15355,3183
15359,4095
15363,4095
15367,4095
15371,3907
15375,2936
15379,2305
15383,2006
15387,1927
15391,1925
15395,1927
15399,1904
15403,1869
15407,1845
15411,1839
15415,1827
15419,1825
15423,1819
15427,1827
15431,1835
15435,1826
15439,1830
15443,1840
15447,1843
15451,1846
15455,1841
15459,1850
15463,1863
15467,1870
15471,1872
15475,1877
15479,1886
15483,1890
15487,1887
15491,1892
15495,1903
15499,1907
15503,1906
15507,1911
15511,1921
15515,1929
15519,1929
15523,1935
15527,1943
15531,1963
15535,1968
15539,1970
15543,1985
15547,2002
15551,2016
15555,2019
15559,2039
15563,2070
15567,2085
15571,2091
15575,2108
15579,2128
15583,2143
15587,2150
15591,2158
15595,2178
15599,2188
15603,2192
15607,2189
15611,2193
15615,2192
15619,2162
15623,2133
15627,2101
15631,2063
15635,2010
15639,1971
15643,1943
15647,1925
15651,1885
15655,1861
15659,1847
15663,1842
15667,1838
15671,1829
15675,1836
15679,1840
15683,1839
15687,1840
15691,1840
15695,1841
15699,1843
15703,1841
15707,1840
15711,1850
15715,1852
15719,1845
15723,1847
15727,1860
15731,1866
15735,1862
15739,1854
15743,1859
15747,1867
15751,1866
15755,1858
15759,1866
15763,1869
15767,1869
15771,1865
15775,1872
15779,1877
15783,1881
15787,1869
15791,1875
15795,1878
15799,1875
15803,1874
15807,1873
15811,1881
15815,1882
15819,1879
15823,1879
15827,1883
15831,1893
15835,1891
15839,1885
15843,1892
15847,1891
15851,1891
15855,1887
15859,1891
15863,1891
15867,1895
15871,1882
15875,1890
15879,1891
15883,1899
15887,1889
15891,1891
15895,1904
15899,1897
15903,1890
15907,1885
15911,1897
15915,1896
15919,1897
15923,1899
15927,1906
15931,1907
15935,1906
15939,1902
15943,1904
15947,1901
15951,1901
15955,1905
15959,1914
15963,1907
15967,1909
15971,1904
15975,1909
15979,1921
15983,1915
15987,1906
15991,1911
15995,1911
15999,1915
16003,1915
16007,1920
16011,1930
16015,1926
16019,1920
16023,1925
16027,1936
16031,1938
16035,1934
16039,1925
16043,1952
16047,1985
16051,1999
16055,2000
16059,2006
16063,2025
16067,2019
16071,2007
16075,1999
16079,1985
16083,1970
16087,1968
16091,1946
16095,1939
16099,1947
16103,1935
16107,1927
16111,1936
16115,1938
16119,1939
16123,1937
16127,1951
16131,1948
16135,1951
16139,1947
16143,1951
16147,1961
16151,1949
16155,1903
16159,1798
16163,1705
16167,1765
16171,2160
16175,2861
16179,3975
16183,4095
16187,4095
16191,4095
16195,3360
16199,2549
16203,2098
16207,1936
16211,1919
16215,1923
16219,1909
16223,1878
16227,1859
16231,1845
16235,1826
16239,1808
16243,1821
16247,1828
16251,1818
16255,1807
16259,1809
16263,1825
16267,1823
16271,1818
16275,1822
16279,1840
16283,1840
16287,1847
16291,1856
16295,1863
16299,1870
16303,1858
16307,1862
16311,1872
16315,1882
16319,1888
16323,1886
16327,1902
16331,1907
16335,1910
16339,1911
16343,1921
16347,1942
16351,1943
16355,1950
16359,1962
16363,1973
16367,1983
16371,1987
16375,2013
16379,2032
16383,2056
16387,2064
16391,2078
16395,2097
16399,2115
16403,2127
16407,2141
16411,2160
16415,2167
16419,2165
16423,2174
16427,2192
16431,2203
16435,2194
16439,2171
16443,2145
16447,2115
16451,2073
16455,2029
16459,1985
16463,1957
16467,1918
16471,1887
16475,1860
16479,1855
16483,1841
16487,1823
16491,1811
16495,1820
16499,1808
16503,1807
16507,1813
16511,1824
16515,1829
16519,1824
16523,1825
16527,1831
16531,1834
16535,1837
16539,1830
16543,1834
16547,1840
16551,1840
16555,1840
16559,1847
16563,1857
16567,1857
16571,1846
16575,1854
16579,1855
16583,1856
16587,1854
16591,1859
16595,1869
16599,1869
16603,1859
16607,1855
16611,1861
16615,1862
16619,1872
16623,1869
16627,1875
16631,1884
16635,1875
16639,1871
16643,1875
16647,1879
16651,1871
16655,1871
16659,1877
16663,1886
16667,1885
16671,1882
16675,1893
16679,1894
16683,1892
16687,1887
16691,1883
16695,1895
16699,1894
16703,1894
16707,1893
16711,1901
16715,1903
16719,1898
16723,1894
16727,1904
16731,1906
16735,1904
16739,1902
16743,1907
16747,1910
16751,1910
16755,1914
16759,1914
16763,1918
16767,1914
16771,1911
16775,1919
16779,1921
16783,1920
16787,1920
16791,1919
16795,1926
16799,1923
16803,1922
16807,1930
16811,1936
16815,1931
16819,1925
16823,1927
16827,1936
16831,1937
16835,1929
16839,1919
16843,1929
16847,1950
16851,1974
16855,1989
16859,1997
16863,2002
16867,2019
16871,2019
16875,2011
16879,2002
16883,1987
16887,1968
16891,1957
16895,1942
16899,1939
16903,1937
16907,1939
16911,1943
16915,1949
16919,1936
16923,1934
16927,1943
16931,1947
16935,1947
16939,1945
16943,1950
16947,1959
16951,1958
16955,1947
16959,1923
16963,1836
16967,1753
16971,1794
16975,2119
16979,2699
16983,3518
16987,4095
16991,4095
16995,3549
16999,2758
17003,2222
17007,1991
17011,1951
17015,1955
17019,1951
17023,1935
17027,1936
17031,1894
17035,1877
17039,1867
17043,1898
17047,1863
17051,1851
17055,1854
17059,1856
17063,1858
17067,1861
17071,1869
17075,1861
17079,1887
17083,1883
17087,1888
17091,1901
17095,1910
17099,1914
17103,1910
17107,1905
17111,1920
17115,1933
17119,1934
17123,1939
17127,1959
17131,1958
17135,1967
17139,1968
17143,1984
17147,1990
17151,1987
17155,1994
17159,2005
17163,2027
17167,2031
17171,2035
17175,2057
17179,2067
17183,2079
17187,2096
17191,2112
17195,2127
17199,2138
17203,2142
17207,2158
17211,2167
17215,2177
17219,2178
17223,2181
17227,2191
17231,2195
17235,2196
17239,2192
17243,2191
17247,2174
17251,2131
17255,2083
17259,2036
17263,2000
17267,1959
17271,1925
17275,1898
17279,1883
17283,1868
17287,1851
17291,1842
17295,1842
17299,1838
17303,1829
17307,1831
17311,1842
17315,1849
17319,1845
17323,1847
17327,1850
17331,1845
17335,1845
17339,1845
17343,1855
17347,1867
17351,1864
17355,1866
17359,1865
17363,1862
17367,1859
17371,1857
17375,1867
17379,1882
17383,1892
17387,1886
17391,1886
17395,1885
17399,1885
17403,1885
17407,1890
17411,1890
17415,1897
17419,1886
17423,1881
17427,1890
17431,1903
17435,1890
17439,1878
17443,1889
17447,1895
17451,1890
17455,1883
17459,1889
17463,1899
17467,1890
17471,1891
17475,1904
17479,1914
17483,1901
17487,1893
17491,1900
17495,1901
17499,1904
17503,1901
17507,1904
17511,1907
17515,1906
17519,1901
17523,1898
17527,1909
17531,1919
17535,1914
17539,1906
17543,1919
17547,1919
17551,1911
17555,1914
17559,1913
17563,1921
17567,1918
17571,1919
17575,1923
17579,1932
17583,1933
17587,1934
17591,1930
17595,1935
17599,1947
17603,1965
17607,1983
17611,2000
17615,2007
17619,1998
17623,1994
17627,2000
17631,1999
17635,1986
17639,1968
17643,1967
17647,1951
17651,1939
17655,1936
17659,1942
17663,1941
17667,1937
17671,1938
17675,1939
17679,1943
17683,1936
17687,1933
17691,1941
17695,1949
17699,1945
17703,1936
17707,1937
17711,1941
17715,1890
17719,1819
17723,1808
17727,1968
17731,2355
17735,2893
17739,3568
17743,3801
17747,3275
17751,2672
17755,2191
17759,1968
17763,1927
17767,1939
17771,1959
17775,1957
17779,1951
17783,1930
17787,1906
17791,1907
17795,1904
17799,1902
17803,1899
17807,1903
17811,1911
17815,1919
17819,1920
17823,1917
17827,1931
17831,1934
17835,1925
17839,1931
17843,1943
17847,1949
17851,1948
17855,1946
17859,1963
17863,1977
17867,1980
17871,1973
17875,1979
17879,1988
17883,1997
17887,2000
17891,2007
17895,2023
17899,2029
17903,2031
17907,2043
17911,2054
17915,2061
17919,2066
17923,2073
17927,2091
17931,2098
17935,2107
17939,2117
17943,2144
17947,2156
17951,2164
17955,2165
17959,2177
17963,2191
17967,2191
17971,2192
17975,2199
17979,2212
17983,2240
17987,2208
17991,2201
17995,2190
17999,2147
18003,2109
18007,2096
18011,2034
18015,1968
18019,1965
18023,1956
18027,1894
18031,1882
18035,1865
18039,1856
18043,1855
18047,1853
18051,1841
18055,1840
18059,1840
18063,1840
18067,1834
18071,1835
18075,1849
18079,1859
18083,1852
18087,1842
18091,1854
18095,1861
18099,1856
18103,1853
18107,1856
18111,1872
18115,1872
18119,1873
18123,1875
18127,1877
18131,1881
18135,1872
18139,1870
18143,1873
18147,1874
18151,1879
18155,1881
18159,1887
18163,1890
18167,1886
18171,1875
18175,1877
18179,1873
18183,1872
18187,1877
18191,1878
18195,1889
18199,1890
18203,1884
18207,1874
18211,1882
18215,1883
18219,1873
18223,1879
18227,1885
18231,1889
18235,1887
18239,1888
18243,1887
18247,1883
18251,1881
18255,1883
18259,1901
18263,1908
18267,1902
18271,1899
18275,1904
18279,1905
18283,1904
18287,1899
18291,1904
18295,1909
18299,1919
18303,1910
18307,1904
18311,1918
18315,1921
18319,1942
18323,1961
18327,1972
18331,1985
18335,1984
18339,1984
18343,1983
18347,1970
18351,1962
18355,1947
18359,1943
18363,1925
18367,1913
18371,1907
18375,1909
18379,1920
18383,1919
18387,1908
18391,1909
18395,1918
18399,1911
18403,1906
18407,1915
18411,1922
18415,1930
18419,1934
18423,1930
18427,1910
18431,1853
18435,1773
18439,1773
18443,1967
18447,2401
18451,3008
18455,3823
18459,4095
18463,3509
18467,2818
18471,2275
18475,2001
18479,1939
18483,1932
18487,1926
18491,1921
18495,1908
18499,1894
18503,1873
18507,1867
18511,1871
18515,1868
18519,1856
18523,1859
18527,1866
18531,1868
18535,1861
18539,1872
18543,1873
18547,1887
18551,1879
18555,1885
18559,1901
18563,1905
18567,1904
18571,1902
18575,1910
18579,1925
18583,1924
18587,1925
18591,1936
18595,1939
18599,1947
18603,1953
18607,1962
18611,1968
18615,1968
18619,1972
18623,1985
18627,2000
18631,2011
18635,2007
18639,2025
18643,2035
18647,2054
18651,2058
18655,2074
18659,2097
18663,2118
18667,2126
18671,2128
18675,2139
18679,2153
18683,2163
18687,2170
18691,2186
18695,2195
18699,2192
18703,2187
18707,2183
18711,2173
18715,2144
18719,2096
18723,2054
18727,2017
18731,1977
18735,1939
18739,1915
18743,1902
18747,1873
18751,1853
18755,1840
18759,1834
18763,1842
18767,1834
18771,1834
18775,1837
18779,1840
18783,1840
18787,1837
18791,1839
18795,1853
18799,1853
18803,1845
18807,1857
18811,1864
18815,1866
18819,1855
18823,1855
18827,1872
18831,1873
18835,1875
18839,1867
18843,1875
18847,1878
18851,1878
18855,1872
18859,1883
18863,1890
18867,1889
18871,1891
18875,1895
18879,1894
18883,1891
18887,1889
18891,1898
18895,1898
18899,1901
18903,1898
18907,1904
18911,1902
18915,1893
18919,1898
18923,1934
18927,1900
18931,1915
18935,1895
18939,1887
18943,1904
18947,1903
18951,1889
18955,1903
18959,1919
18963,1902
18967,1885
18971,1897
18975,1904
18979,1904
18983,1905
18987,1904
18991,1907
18995,1912
18999,1909
19003,1905
19007,1910
19011,1920
19015,1911
19019,1915
19023,1918
19027,1933
19031,1925
19035,1915
19039,1921
19043,1950
19047,1977
19051,1985
19055,1984
19059,1999
19063,2002
19067,1997
19071,1986
19075,1983
19079,1968
19083,1954
19087,1933
19091,1922
19095,1925
19099,1920
19103,1927
19107,1933
19111,1936
19115,1929
19119,1924
19123,1922
19127,1931
19131,1931
19135,1931
19139,1933
19143,1936
19147,1945
19151,1920
19155,1869
19159,1775
19163,1738
19167,1904
19171,2383
19175,3088
19179,4095
19183,4095
19187,4095
19191,3408
19195,2645
19199,2160
19203,1974
19207,1939
19211,1936
19215,1927
19219,1902
19223,1878
19227,1863
19231,1850
19235,1840
19239,1842
19243,1841
19247,1838
19251,1835
19255,1835
19259,1841
19263,1847
19267,1850
19271,1847
19275,1865
19279,1871
19283,1866
19287,1860
19291,1872
19295,1889
19299,1893
19303,1888
19307,1894
19311,1904
19315,1900
19319,1903
19323,1914
19327,1923
19331,1925
19335,1929
19339,1938
19343,1954
19347,1954
19351,1963
19355,1974
19359,1994
19363,2007
19367,2016
19371,2031
19375,2055
19379,2070
19383,2086
19387,2094
19391,2111
19395,2130
19399,2135
19403,2150
19407,2161
19411,2176
19415,2181
19419,2183
19423,2193
19427,2199
19431,2198
19435,2179
19439,2156
19443,2127
19447,2091
19451,2034
19455,1993
19459,1963
19463,1937
19467,1905
19471,1885
19475,1872
19479,1863
19483,1857
19487,1850
19491,1854
19495,1856
19499,1850
19503,1845
19507,1854
19511,1865
19515,1861
19519,1851
19523,1852
19527,1856
19531,1855
19535,1855
19539,1857
19543,1860
19547,1861
19551,1859
19555,1867
19559,1872
19563,1883
19567,1875
19571,1870
19575,1882
19579,1885
19583,1875
19587,1871
19591,1872
19595,1872
19599,1873
19603,1876
19607,1879
19611,1888
19615,1883
19619,1883
19623,1887
19627,1891
19631,1889
19635,1887
19639,1888
19643,1897
19647,1891
19651,1886
19655,1889
19659,1892
19663,1901
19667,1891
19671,1891
19675,1893
19679,1893
19683,1893
19687,1894
19691,1904
19695,1904
19699,1909
19703,1903
19707,1907
19711,1915
19715,1910
19719,1907
19723,1911
19727,1918
19731,1918
19735,1911
19739,1915
19743,1917
19747,1925
19751,1922
19755,1920
19759,1931
19763,1936
19767,1935
19771,1925
19775,1925
19779,1936
19783,1955
19787,1974
19791,1988
19795,2003
19799,2000
19803,2000
19807,1999
19811,1990
19815,1984
19819,1968
19823,1953
19827,1936
19831,1927
19835,1923
19839,1936
19843,1936
19847,1939
19851,1936
19855,1933
19859,1927
19863,1930
19867,1936
19871,1937
19875,1970
19879,1936
19883,1950
19887,1899
19891,1927
19895,1839
19899,1762
19903,1744
19907,2032
19911,2647
19915,3503
19919,4095
19923,4095
19927,4095
19931,3503
19935,2655
19939,2160
19943,1970
19947,1931
19951,1927
19955,1918
19959,1904
19963,1872
19967,1855
19971,1836
19975,1835
19979,1828
19983,1834
19987,1830
19991,1836
19995,1838
