Timestamp,ECG Data
4,1893
7,1886
11,1870
15,1878
19,1872
23,1839
27,1829
31,1865
35,1904
39,1920
43,1917
47,1906
51,1908
55,1916
59,1902
63,1879
67,1887
71,1900
75,1891
79,1837
83,1794
87,1821
91,1873
95,1927
99,1968
103,1961
107,1937
111,1937
115,1971
119,1970
123,1948
127,1927
131,1949
135,1984
139,1998
143,1997
147,2007
151,2032
155,2038
159,2006
163,1977
167,1994
171,1999
175,1943
179,1889
183,1885
187,1936
191,1968
195,2002
199,2011
203,1986
207,1989
211,1998
215,1987
219,1990
223,1980
227,1936
231,1906
235,1936
239,1984
243,1971
247,1869
251,1731
255,1701
259,2214
263,3253
267,4095
271,4095
275,4095
279,4095
283,4095
287,3725
291,2683
295,2098
299,1937
303,1938
307,1929
311,1943
315,1956
319,1936
323,1877
327,1839
331,1840
335,1872
339,1895
343,1878
347,1852
351,1872
355,1898
359,1895
363,1874
367,1883
371,1905
375,1915
379,1927
383,1938
387,1941
391,1940
395,1937
399,1945
403,1968
407,1974
411,1968
415,1975
419,1982
423,1981
427,1969
431,1979
435,1997
439,2002
443,1997
447,2000
451,2021
455,2031
459,2039
463,2053
467,2073
471,2096
475,2097
479,2103
483,2123
487,2137
491,2153
495,2153
499,2171
503,2191
507,2198
511,2202
515,2209
519,2223
523,2221
527,2198
531,2170
535,2143
539,2103
543,2035
547,1984
551,1965
555,1936
559,1901
563,1872
567,1861
571,1851
575,1831
579,1811
583,1821
587,1827
591,1819
595,1814
599,1826
603,1837
607,1831
611,1822
615,1830
619,1838
623,1840
627,1835
631,1842
635,1856
639,1862
643,1857
647,1850
651,1863
655,1871
659,1854
663,1856
667,1863
671,1872
675,1872
679,1868
683,1874
687,1885
691,1873
695,1867
699,1876
703,1890
707,1884
711,1875
715,1875
719,1887
723,1885
727,1874
731,1883
735,1885
739,1888
743,1877
747,1879
751,1891
755,1893
759,1890
763,1891
767,1905
771,1907
775,1899
779,1888
783,1899
787,1903
791,1898
795,1899
799,1904
803,1906
807,1902
811,1889
815,1904
819,1914
823,1911
827,1902
831,1910
835,1920
839,1913
843,1903
847,1905
851,1911
855,1906
859,1904
863,1901
867,1905
871,1911
875,1899
879,1902
883,1914
887,1915
891,1904
895,1903
899,1919
903,1950
907,1968
911,1986
915,2013
919,2019
923,2006
927,1979
931,1968
935,1965
939,1949
943,1920
947,1909
951,1916
955,1919
959,1917
963,1907
967,1919
971,1923
975,1919
979,1911
983,1926
987,1925
991,1920
995,1921
999,1926
1003,1931
1007,1879
1011,1758
1015,1664
1019,1731
1023,2139
1027,2893
1031,4095
1035,4095
1039,4095
1043,4095
1047,3866
1051,2817
1055,2177
1059,1915
1063,1877
1067,1895
1071,1895
1075,1862
1079,1818
1083,1814
1087,1787
1091,1806
1095,1757
1099,1776
1103,1779
1107,1781
1111,1776
1115,1808
1119,1799
1123,1792
1127,1822
1131,1793
1135,1807
1139,1808
1143,1805
1147,1807
1151,1834
1155,1840
1159,1835
1163,1834
1167,1847
1171,1861
1175,1853
1179,1862
1183,1883
1187,1899
1191,1901
1195,1904
1199,1916
1203,1937
1207,1936
1211,1938
1215,1953
1219,1984
1223,1987
1227,1991
1231,2021
1235,2039
1239,2047
1243,2054
1247,2067
1251,2096
1255,2103
1259,2114
1263,2115
1267,2129
1271,2143
1275,2154
1279,2163
1283,2181
1287,2177
1291,2160
1295,2131
1299,2106
1303,2068
1307,2011
1311,1959
1315,1925
1319,1898
1323,1862
1327,1825
1331,1808
1335,1810
1339,1792
1343,1770
1347,1771
1351,1785
1355,1782
1359,1781
1363,1779
1367,1795
1371,1795
1375,1794
1379,1793
1383,1802
1387,1809
1391,1805
1395,1799
1399,1804
1403,1807
1407,1808
1411,1808
1415,1813
1419,1833
1423,1835
1427,1808
1431,1804
1435,1827
1439,1836
1443,1826
1447,1826
1451,1833
1455,1831
1459,1822
1463,1826
1467,1840
1471,1843
1475,1834
1479,1835
1483,1845
1487,1853
1491,1842
1495,1835
1499,1840
1503,1851
1507,1846
1511,1842
1515,1849
1519,1859
1523,1852
1527,1846
1531,1849
1535,1861
1539,1856
1543,1846
1547,1846
1551,1855
1555,1855
1559,1847
1563,1851
1567,1860
1571,1870
1575,1855
1579,1855
1583,1872
1587,1866
1591,1853
1595,1850
1599,1870
1603,1900
1607,1926
1611,1945
1615,1968
1619,1974
1623,1954
1627,1923
1631,1924
1635,1933
1639,1911
1643,1893
1647,1882
1651,1884
1655,1882
1659,1874
1663,1884
1667,1894
1671,1894
1675,1887
1679,1889
1683,1902
1687,1907
1691,1900
1695,1895
1699,1904
1703,1886
1707,1778
1711,1645
1715,1645
1719,1966
1723,2675
1727,3809
1731,4095
1735,4095
1739,4095
1743,4095
1747,3157
1751,2377
1755,1977
1759,1872
1763,1871
1767,1875
1771,1857
1775,1820
1779,1794
1783,1779
1787,1778
1791,1769
1795,1762
1799,1776
1803,1778
1807,1778
1811,1774
1815,1791
1819,1807
1823,1808
1827,1806
1831,1820
1835,1831
1839,1829
1843,1826
1847,1840
1851,1859
1855,1861
1859,1861
1863,1872
1867,1883
1871,1894
1875,1895
1879,1899
1883,1913
1887,1917
1891,1920
1895,1923
1899,1942
1903,1950
1907,1952
1911,1953
1915,1970
1919,1998
1923,2006
1927,2011
1931,2026
1935,2042
1939,2064
1943,2067
1947,2081
1951,2107
1955,2123
1959,2127
1963,2131
1967,2156
1971,2173
1975,2167
1979,2160
1983,2166
1987,2155
1991,2127
1995,2095
1999,2066
2003,2027
2007,1967
2011,1922
2015,1897
2019,1873
2023,1871
2027,1817
2031,1798
2035,1815
2039,1811
2043,1791
2047,1766
2051,1812
2055,1808
2059,1802
2063,1808
2067,1819
2071,1821
2075,1807
2079,1807
2083,1819
2087,1822
2091,1819
2095,1821
2099,1824
2103,1837
2107,1837
2111,1839
2115,1840
2119,1856
2123,1854
2127,1844
2131,1842
2135,1847
2139,1856
2143,1853
2147,1863
2151,1872
2155,1873
2159,1856
2163,1861
2167,1871
2171,1872
2175,1857
2179,1862
2183,1876
2187,1874
2191,1869
2195,1866
2199,1878
2203,1882
2207,1873
2211,1870
2215,1877
2219,1892
2223,1888
2227,1881
2231,1891
2235,1898
2239,1899
2243,1882
2247,1887
2251,1901
2255,1889
2259,1874
2263,1875
2267,1887
2271,1903
2275,1907
2279,1936
2283,1967
2287,1986
2291,1973
2295,1953
2299,1952
2303,1942
2307,1930
2311,1898
2315,1895
2319,1900
2323,1894
2327,1895
2331,1891
2335,1895
2339,1901
2343,1895
2347,1906
2351,1915
2355,1903
2359,1891
2363,1899
2367,1909
2371,1907
2375,1866
2379,1746
2383,1648
2387,1705
2391,2133
2395,2928
2399,4095
2403,4095
2407,4095
2411,4095
2415,3901
2419,2832
2423,2179
2427,1909
2431,1872
2435,1893
2439,1881
2443,1856
2447,1826
2451,1801
2455,1776
2459,1762
2463,1767
2467,1787
2471,1781
2475,1774
2479,1783
2483,1802
2487,1806
2491,1794
2495,1798
2499,1809
2503,1824
2507,1827
2511,1825
2515,1831
2519,1851
2523,1851
2527,1855
2531,1867
2535,1876
2539,1874
2543,1873
2547,1887
2551,1904
2555,1904
2559,1903
2563,1911
2567,1931
2571,1936
2575,1936
2579,1948
2583,1968
2587,1979
2591,1987
2595,1989
2599,2029
2603,2055
2607,2062
2611,2064
2615,2085
2619,2103
2623,2112
2627,2112
2631,2139
2635,2157
2639,2160
2643,2163
2647,2171
2651,2192
2655,2187
2659,2163
2663,2151
2667,2125
2671,2086
2675,2033
2679,2006
2683,1989
2687,1964
2691,1931
2695,1923
2699,1931
2703,1929
2707,1904
2711,1905
2715,1919
2719,1927
2723,1929
2727,1931
2731,1946
2735,1951
2739,1961
2743,1958
2747,1971
2751,1994
2755,1997
2759,1991
2763,1997
2767,2007
2771,2017
2775,2022
2779,2030
2783,2047
2787,2057
2791,2047
2795,2045
2799,2062
2803,2071
2807,2066
2811,2069
2815,2089
2819,2096
2823,2091
2827,2080
2831,2095
2835,2116
2839,2105
2843,2105
2847,2112
2851,2126
2855,2129
2859,2128
2863,2141
2867,2140
2871,2142
2875,2140
2879,2146
2883,2160
2887,2160
2891,2157
2895,2155
2899,2171
2903,2173
2907,2161
2911,2171
2915,2183
2919,2150
2923,2239
2927,2176
2931,2192
2935,2192
2939,2169
2943,2146
2947,2173
2951,2215
2955,2227
2959,2266
2963,2289
2967,2334
2971,2278
2975,2234
2979,2237
2983,2237
2987,2223
2991,2199
2995,2187
2999,2205
3003,2195
3007,2169
3011,2179
3015,2212
3019,2224
3023,2212
3027,2201
3031,2217
3035,2221
3039,2208
3043,2191
3047,2192
3051,2187
3055,2107
3059,1961
3063,1879
3067,2042
3071,2653
3075,3733
3079,4095
3083,4095
3087,4095
3091,4095
3095,4095
3099,3472
3103,2640
3107,2180
3111,2068
3115,2101
3119,2128
3123,2109
3127,2082
3131,2063
3135,2046
3139,2019
3143,2014
3147,2029
3151,2035
3155,2033
3159,2026
3163,2036
3167,2059
3171,2057
3175,2037
3179,2043
3183,2064
3187,2063
3191,2055
3195,2063
3199,2076
3203,2082
3207,2066
3211,2064
3215,2084
3219,2093
3223,2090
3227,2093
3231,2101
3235,2111
3239,2110
3243,2112
3247,2127
3251,2138
3255,2140
3259,2144
3263,2158
3267,2179
3271,2176
3275,2185
3279,2201
3283,2218
3287,2225
3291,2231
3295,2242
3299,2271
3303,2282
3307,2278
3311,2288
3315,2305
3319,2319
3323,2317
3327,2317
3331,2329
3335,2322
3339,2301
3343,2263
3347,2240
3351,2211
3355,2175
3359,2126
3363,2096
3367,2082
3371,2062
3375,2031
3379,2023
3383,2032
3387,2023
3391,2000
3395,2001
3399,2016
3403,2019
3407,2007
3411,2005
3415,2011
3419,2016
3423,2013
3427,2014
3431,2017
3435,2021
3439,2016
3443,2000
3447,2010
3451,2017
3455,2011
3459,2011
3463,2019
3467,2029
3471,2023
3475,2011
3479,2016
3483,2027
3487,2029
3491,2019
3495,2021
3499,2015
3503,2022
3507,2012
3511,2015
3515,2032
3519,2030
3523,2021
3527,2013
3531,2021
3535,2021
3539,2014
3543,2007
3547,2021
3551,2031
3555,2015
3559,2006
3563,2007
3567,2015
3571,2000
3575,2000
3579,2007
3583,2013
3587,2010
3591,2000
3595,2005
3599,2010
3603,2015
3607,2000
3611,1998
3615,2005
3619,2007
3623,2002
3627,1991
3631,1997
3635,2000
3639,1993
3643,1975
3647,1986
3651,1999
3655,2004
3659,2032
3663,2081
3667,2105
3671,2095
3675,2068
3679,2058
3683,2054
3687,2036
3691,2005
3695,1982
3699,1984
3703,1977
3707,1966
3711,1968
3715,1979
3719,1978
3723,1968
3727,1965
3731,1970
3735,1971
3739,1968
3743,1963
3747,1974
3751,1979
3755,1941
3759,1843
3763,1701
3767,1641
3771,1867
3775,2559
3779,3729
3783,4095
3787,4095
3791,4095
3795,4095
3799,4095
3803,3081
3807,2288
3811,1922
3815,1862
3819,1875
3823,1871
3827,1845
3831,1823
3835,1805
3839,1775
3843,1761
3847,1759
3851,1763
3855,1764
3859,1745
3863,1772
3867,1776
3871,1776
3875,1766
3879,1794
3883,1792
3887,1791
3891,1789
3895,1792
3899,1797
3903,1801
3907,1798
3911,1802
3915,1815
3919,1819
3923,1813
3927,1811
3931,1830
3935,1831
3939,1831
3943,1840
3947,1845
3951,1867
3955,1861
3959,1856
3963,1878
3967,1894
3971,1892
3975,1897
3979,1904
3983,1924
3987,1937
3991,1941
3995,1958
3999,1979
4003,1989
4007,1990
4011,2003
4015,2026
4019,2036
4023,2047
4027,2054
4031,2067
4035,2075
4039,2063
4043,2032
4047,2018
4051,2000
4055,1966
4059,1922
4063,1888
4067,1867
4071,1830
4075,1802
4079,1789
4083,1783
4087,1776
4091,1765
4095,1761
4099,1772
4103,1776
4107,1768
4111,1765
4115,1776
4119,1777
4123,1767
4127,1772
4131,1781
4135,1791
4139,1780
4143,1778
4147,1788
4151,1791
4155,1781
4159,1786
4163,1792
4167,1807
4171,1799
4175,1792
4179,1802
4183,1805
4187,1805
4191,1794
4195,1806
4199,1809
4203,1810
4207,1805
4211,1808
4215,1824
4219,1818
4223,1803
4227,1808
4231,1819
4235,1824
4239,1814
4243,1808
4247,1822
4251,1814
4255,1813
4259,1814
4263,1824
4267,1830
4271,1820
4275,1809
4279,1825
4283,1835
4287,1833
4291,1818
4295,1826
4299,1840
4303,1837
4307,1831
4311,1831
4315,1841
4319,1845
4323,1840
4327,1842
4331,1855
4335,1858
4339,1854
4343,1844
4347,1846
4351,1847
4355,1843
4359,1845
4363,1856
4367,1856
4371,1856
4375,1856
4379,1866
4383,1867
4387,1850
4391,1855
4395,1881
4399,1921
4403,1945
4407,1955
4411,1965
4415,1970
4419,1966
4423,1943
4427,1933
4431,1935
4435,1909
4439,1879
4443,1865
4447,1872
4451,1872
4455,1873
4459,1878
4463,1886
4467,1891
4471,1874
4475,1862
4479,1869
4483,1881
4487,1878
4491,1874
4495,1875
4499,1840
4503,1714
4507,1573
4511,1587
4515,2000
4519,2807
4523,4095
4527,4095
4531,4095
4535,4095
4539,4095
4543,3124
4547,2345
4551,1949
4555,1831
4559,1824
4563,1828
4567,1809
4571,1782
4575,1747
4579,1744
4583,1734
4587,1728
4591,1716
4595,1723
4599,1732
4603,1724
4607,1727
4611,1731
4615,1747
4619,1759
4623,1757
4627,1761
4631,1773
4635,1771
4639,1763
4643,1765
4647,1781
4651,1793
4655,1789
4659,1783
4663,1797
4667,1808
4671,1808
4675,1808
4679,1827
4683,1835
4687,1835
4691,1835
4695,1847
4699,1869
4703,1874
4707,1877
4711,1890
4715,1906
4719,1913
4723,1914
4727,1929
4731,1950
4735,1967
4739,1965
4743,1970
4747,1996
4751,2005
4755,2009
4759,2017
4763,2042
4767,2064
4771,2064
4775,2069
4779,2032
4783,2081
4787,2075
4791,2032
4795,2011
4799,1969
4803,1947
4807,1897
4811,1872
4815,1877
4819,1818
4823,1791
4827,1776
4831,1789
4835,1785
4839,1779
4843,1776
4847,1787
4851,1793
4855,1789
4859,1775
4863,1797
4867,1801
4871,1792
4875,1789
4879,1807
4883,1810
4887,1808
4891,1807
4895,1820
4899,1828
4903,1819
4907,1809
4911,1818
4915,1822
4919,1833
4923,1824
4927,1829
4931,1840
4935,1840
4939,1831
4943,1833
4947,1839
4951,1842
4955,1838
4959,1834
4963,1847
4967,1854
4971,1844
4975,1840
4979,1843
4983,1855
4987,1856
4991,1846
4995,1854
4999,1862
5003,1861
5007,1843
5011,1853
5015,1859
5019,1863
5023,1858
5027,1860
5031,1867
5035,1869
5039,1863
5043,1871
5047,1878
5051,1886
5055,1879
5059,1879
5063,1890
5067,1893
5071,1882
5075,1881
5079,1898
5083,1899
5087,1889
5091,1888
5095,1901
5099,1910
5103,1899
5107,1890
5111,1899
5115,1910
5119,1908
5123,1899
5127,1904
5131,1917
5135,1904
5139,1891
5143,1899
5147,1927
5151,1963
5155,1981
5159,2000
5163,2018
5167,2017
5171,2000
5175,1984
5179,1979
5183,1968
5187,1943
5191,1909
5195,1917
5199,1915
5203,1911
5207,1904
5211,1919
5215,1927
5219,1927
5223,1917
5227,1920
5231,1930
5235,1927
5239,1920
5243,1924
5247,1936
5251,1913
5255,1804
5259,1655
5263,1639
5267,1922
5271,2621
5275,3730
5279,4095
5283,4095
5287,4095
5291,4095
5295,3200
5299,2415
5303,2007
5307,1889
5311,1888
5315,1903
5319,1873
5323,1837
5327,1814
5331,1807
5335,1788
5339,1778
5343,1782
5347,1794
5351,1797
5355,1790
5359,1787
5363,1807
5367,1808
5371,1800
5375,1804
5379,1814
5383,1818
5387,1823
5391,1823
5395,1839
5399,1847
5403,1840
5407,1840
5411,1855
5415,1872
5419,1872
5423,1872
5427,1873
5431,1894
5435,1898
5439,1890
5443,1904
5447,1919
5451,1930
5455,1935
5459,1945
5463,1955
5467,1973
5471,1979
5475,1983
5479,2000
5483,2015
5487,2018
5491,2031
5495,2053
5499,2071
5503,2077
5507,2071
5511,2096
5515,2112
5519,2110
5523,2107
5527,2117
5531,2128
5535,2129
5539,2107
5543,2089
5547,2065
5551,2031
5555,1984
5559,1945
5563,1920
5567,1894
5571,1872
5575,1843
5579,1842
5583,1837
5587,1830
5591,1823
5595,1826
5599,1840
5603,1829
5607,1827
5611,1840
5615,1851
5619,1850
5623,1841
5627,1854
5631,1856
5635,1863
5639,1856
5643,1856
5647,1873
5651,1872
5655,1869
5659,1858
5663,1864
5667,1875
5671,1866
5675,1867
5679,1875
5683,1879
5687,1878
5691,1874
5695,1907
5699,1887
5703,1882
5707,1872
5711,1877
5715,1903
5719,1890
5723,1877
5727,1885
5731,1872
5735,1901
5739,1887
5743,1893
5747,1905
5751,1909
5755,1901
5759,1898
5763,1911
5767,1917
5771,1907
5775,1901
5779,1904
5783,1914
5787,1914
5791,1906
5795,1918
5799,1920
5803,1913
5807,1911
5811,1922
5815,1932
5819,1924
5823,1921
5827,1925
5831,1936
5835,1926
5839,1913
5843,1919
5847,1937
5851,1931
5855,1927
5859,1936
5863,1940
5867,1936
5871,1922
5875,1920
5879,1942
5883,1962
5887,1977
5891,1991
5895,2017
5899,2032
5903,2023
5907,1997
5911,1986
5915,1986
5919,1968
5923,1938
5927,1934
5931,1939
5935,1941
5939,1930
5943,1935
5947,1938
5951,1945
5955,1932
5959,1937
5963,1953
5967,1957
5971,1947
5975,1938
5979,1957
5983,1958
5987,1910
5991,1807
5995,1716
5999,1766
6003,2100
6007,2735
6011,3705
6015,4095
6019,4095
6023,3699
6027,2854
6031,2299
6035,2039
6039,1966
6043,1963
6047,1963
6051,1951
6055,1925
6059,1904
6063,1898
6067,1883
6071,1869
6075,1856
6079,1866
6083,1879
6087,1873
6091,1869
6095,1875
6099,1889
6103,1890
6107,1886
6111,1894
6115,1905
6119,1907
6123,1903
6127,1907
6131,1921
6135,1924
6139,1911
6143,1920
6147,1936
6151,1934
6155,1933
6159,1939
6163,1968
6167,1977
6171,1970
6175,1968
6179,1985
6183,1997
6187,1999
6191,2001
6195,2027
6199,2033
6203,2039
6207,2036
6211,2062
6215,2081
6219,2089
6223,2093
6227,2098
6231,2127
6235,2127
6239,2126
6243,2133
6247,2155
6251,2160
6255,2162
6259,2176
6263,2176
6267,2170
6271,2144
6275,2117
6279,2096
6283,2064
6287,2006
6291,1968
6295,1951
6299,1927
6303,1893
6307,1872
6311,1868
6315,1866
6319,1854
6323,1835
6327,1837
6331,1841
6335,1843
6339,1833
6343,1845
6347,1856
6351,1857
6355,1851
6359,1854
6363,1866
6367,1865
6371,1855
6375,1857
6379,1872
6383,1883
6387,1884
6391,1882
6395,1889
6399,1891
6403,1878
6407,1875
6411,1887
6415,1907
6419,1897
6423,1889
6427,1893
6431,1904
6435,1899
6439,1893
6443,1885
6447,1904
6451,1905
6455,1901
6459,1904
6463,1907
6467,1909
6471,1899
6475,1898
6479,1908
6483,1907
6487,1895
6491,1897
6495,1906
6499,1906
6503,1902
6507,1891
6511,1904
6515,1917
6519,1915
6523,1906
6527,1910
6531,1922
6535,1925
6539,1910
6543,1905
6547,1919
6551,1921
6555,1909
6559,1914
6563,1934
6567,1948
6571,1952
6575,1971
6579,2003
6583,2020
6587,2004
6591,1996
6595,1990
6599,1987
6603,1968
6607,1936
6611,1930
6615,1920
6619,1920
6623,1920
6627,1920
6631,1935
6635,1906
6639,1926
6643,1916
6647,1942
6651,1969
6655,1935
6659,1939
6663,1939
6667,1950
6671,1925
6675,1855
6679,1754
6683,1682
6687,1815
6691,2323
6695,3145
6699,4095
6703,4095
6707,4095
6711,3966
6715,2973
6719,2306
6723,1997
6727,1929
6731,1936
6735,1923
6739,1895
6743,1872
6747,1856
6751,1847
6755,1829
6759,1819
6763,1827
6767,1831
6771,1821
6775,1824
6779,1834
6783,1838
6787,1829
6791,1838
6795,1850
6799,1855
6803,1856
6807,1855
6811,1870
6815,1879
6819,1878
6823,1870
6827,1882
6831,1887
6835,1890
6839,1888
6843,1903
6847,1907
6851,1921
6855,1909
6859,1917
6863,1924
6867,1956
6871,1935
6875,1941
6879,1968
6883,1969
6887,1973
6891,1981
6895,2001
6899,2017
6903,2023
6907,2039
6911,2062
6915,2079
6919,2074
6923,2075
6927,2095
6931,2109
6935,2109
6939,2101
6943,2117
6947,2130
6951,2129
6955,2111
6959,2091
6963,2067
6967,2039
6971,1995
6975,1967
6979,1946
6983,1914
6987,1885
6991,1865
6995,1857
6999,1850
7003,1840
7007,1825
7011,1840
7015,1841
7019,1834
7023,1830
7027,1842
7031,1856
7035,1859
7039,1847
7043,1851
7047,1861
7051,1869
7055,1862
7059,1862
7063,1872
7067,1869
7071,1862
7075,1867
7079,1878
7083,1876
7087,1871
7091,1872
7095,1886
7099,1897
7103,1885
7107,1875
7111,1886
7115,1895
7119,1885
7123,1878
7127,1890
7131,1895
7135,1894
7139,1895
7143,1890
7147,1901
7151,1898
7155,1888
7159,1894
7163,1904
7167,1902
7171,1892
7175,1899
7179,1904
7183,1912
7187,1907
7191,1902
7195,1907
7199,1914
7203,1907
7207,1906
7211,1910
7215,1918
7219,1906
7223,1899
7227,1904
7231,1924
7235,1922
7239,1911
7243,1920
7247,1926
7251,1924
7255,1920
7259,1925
7263,1934
7267,1935
7271,1920
7275,1938
7279,1972
7283,2001
7287,2013
7291,2019
7295,2026
7299,2022
7303,1999
7307,1982
7311,1981
7315,1969
7319,1936
7323,1920
7327,1927
7331,1936
7335,1936
7339,1921
7343,1936
7347,1941
7351,1940
7355,1931
7359,1935
7363,1941
7367,1939
7371,1926
7375,1936
7379,1930
7383,1879
7387,1744
7391,1643
7395,1738
7399,2234
7403,3053
7407,4095
7411,4095
7415,4095
7419,4095
7423,3696
7427,2725
7431,2150
7435,1922
7439,1881
7443,1898
7447,1901
7451,1861
7455,1823
7459,1808
7463,1810
7467,1799
7471,1787
7475,1782
7479,1791
7483,1791
7487,1791
7491,1796
7495,1813
7499,1815
7503,1808
7507,1798
7511,1818
7515,1834
7519,1827
7523,1827
7527,1843
7531,1826
7535,1843
7539,1814
7543,1861
7547,1793
7551,1863
7555,1854
7559,1863
7563,1875
7567,1878
7571,1875
7575,1872
7579,1897
7583,1907
7587,1902
7591,1904
7595,1932
7599,1933
7603,1938
7607,1957
7611,1983
7615,2000
7619,2003
7623,2007
7627,2027
7631,2042
7635,2053
7639,2061
7643,2076
7647,2094
7651,2097
7655,2102
7659,2109
7663,2112
7667,2096
7671,2055
7675,2020
7679,2001
7683,1968
7687,1925
7691,1894
7695,1882
7699,1867
7703,1836
7707,1819
7711,1824
7715,1822
7719,1814
7723,1803
7727,1815
7731,1825
7735,1819
7739,1812
7743,1817
7747,1831
7751,1828
7755,1818
7759,1826
7763,1840
7767,1840
7771,1836
7775,1836
7779,1853
7783,1857
7787,1846
7791,1843
7795,1855
7799,1854
7803,1847
7807,1846
7811,1853
7815,1861
7819,1855
7823,1850
7827,1864
7831,1865
7835,1865
7839,1856
7843,1867
7847,1875
7851,1873
7855,1863
7859,1873
7863,1878
7867,1885
7871,1872
7875,1872
7879,1883
7883,1877
7887,1867
7891,1866
7895,1879
7899,1885
7903,1877
7907,1874
7911,1881
7915,1896
7919,1882
7923,1877
7927,1888
7931,1893
7935,1896
7939,1887
7943,1901
7947,1904
7951,1893
7955,1889
7959,1893
7963,1905
7967,1906
7971,1893
7975,1893
7979,1904
7983,1907
7987,1905
7991,1910
7995,1923
7999,1907
8003,1899
8007,1904
8011,1942
8015,1978
8019,1987
8023,1997
8027,2000
8031,1999
8035,1975
8039,1961
8043,1952
8047,1949
8051,1920
8055,1902
8059,1898
8063,1910
8067,1920
8071,1913
8075,1920
8079,1923
8083,1921
8087,1912
8091,1911
8095,1920
8099,1919
8103,1911
8107,1910
8111,1917
8115,1872
8119,1742
8123,1616
8127,1671
8131,2122
8135,2935
8139,4095
8143,4095
8147,4095
8151,4095
8155,4010
8159,2918
8163,2241
8167,1921
8171,1850
8175,1871
8179,1878
8183,1856
8187,1813
8191,1790
8195,1786
8199,1779
8203,1764
8207,1759
8211,1763
8215,1770
8219,1763
8223,1763
8227,1773
8231,1781
8235,1783
8239,1783
8243,1796
8247,1808
8251,1805
8255,1807
8259,1815
8263,1826
8267,1830
8271,1822
8275,1827
8279,1840
8283,1849
8287,1841
8291,1853
8295,1869
8299,1871
8303,1868
8307,1870
8311,1891
8315,1895
8319,1899
8323,1904
8327,1923
8331,1946
8335,1947
8339,1953
8343,1968
8347,1994
8351,1995
8355,2005
8359,2027
8363,2045
8367,2058
8371,2055
8375,2067
8379,2091
8383,2103
8387,2099
8391,2107
8395,2113
8399,2103
8403,2071
8407,2038
8411,2014
8415,1980
8419,1936
8423,1894
8427,1873
8431,1863
8435,1840
8439,1811
8443,1811
8447,1810
8451,1803
8455,1791
8459,1812
8463,1813
8467,1738
8471,1812
8475,1806
8479,1807
8483,1826
8487,1815
8491,1818
8495,1871
8499,1840
8503,1829
8507,1820
8511,1855
8515,1850
8519,1852
8523,1847
8527,1856
8531,1857
8535,1847
8539,1843
8543,1858
8547,1872
8551,1868
8555,1857
8559,1856
8563,1869
8567,1870
8571,1857
8575,1859
8579,1872
8583,1878
8587,1870
8591,1871
8595,1879
8599,1887
8603,1872
8607,1874
8611,1883
8615,1892
8619,1880
8623,1877
8627,1886
8631,1899
8635,1890
8639,1885
8643,1897
8647,1901
8651,1891
8655,1886
8659,1897
8663,1902
8667,1899
8671,1891
8675,1898
8679,1908
8683,1910
8687,1906
8691,1898
8695,1909
8699,1919
8703,1907
8707,1905
8711,1915
8715,1921
8719,1911
8723,1916
8727,1920
8731,1931
8735,1920
8739,1913
8743,1923
8747,1929
8751,1926
8755,1914
8759,1927
8763,1937
8767,1933
8771,1914
8775,1931
8779,1954
8783,1973
8787,1989
8791,2006
8795,2033
8799,2036
8803,2013
8807,1995
8811,1993
8815,1984
8819,1967
8823,1934
8827,1931
8831,1931
8835,1935
8839,1929
8843,1941
8847,1941
8851,1939
8855,1925
8859,1936
8863,1950
8867,1939
8871,1933
8875,1937
8879,1949
8883,1939
8887,1878
8891,1759
8895,1648
8899,1682
8903,2096
8907,2919
8911,4095
8915,4095
8919,4095
8923,4095
8927,4095
8931,3147
8935,2353
8939,1957
8943,1872
8947,1895
8951,1899
8955,1868
8959,1845
8963,1831
8967,1803
8971,1786
8975,1787
8979,1792
8983,1786
8987,1783
8991,1791
8995,1806
8999,1811
9003,1808
9007,1799
9011,1819
9015,1835
9019,1824
9023,1823
9027,1840
9031,1845
9035,1841
9039,1842
9043,1851
9047,1863
9051,1866
9055,1856
9059,1853
9063,1882
9067,1884
9071,1882
9075,1892
9079,1907
9083,1909
9087,1907
9091,1920
9095,1937
9099,1948
9103,1946
9107,1961
9111,1986
9115,2000
9119,2002
9123,2016
9127,2037
9131,2064
9135,2070
9139,2075
9143,2096
9147,2121
9151,2128
9155,2129
9159,2145
9163,2157
9167,2145
9171,2128
9175,2119
9179,2097
9183,2064
9187,2005
9191,1968
9195,1939
9199,1916
9203,1874
9207,1856
9211,1847
9215,1834
9219,1826
9223,1816
9227,1821
9231,1830
9235,1818
9239,1809
9243,1826
9247,1835
9251,1830
9255,1821
9259,1838
9263,1843
9267,1847
9271,1834
9275,1845
9279,1852
9283,1854
9287,1847
9291,1845
9295,1861
9299,1858
9303,1855
9307,1851
9311,1863
9315,1871
9319,1866
9323,1861
9327,1866
9331,1873
9335,1873
9339,1867
9343,1877
9347,1892
9351,1886
9355,1877
9359,1886
9363,1889
9367,1886
9371,1883
9375,1883
9379,1899
9383,1895
9387,1885
9391,1890
9395,1899
9399,1883
9403,1901
9407,1889
9411,1903
9415,1902
9419,1919
9423,1900
9427,1904
9431,1949
9435,1919
9439,1906
9443,1914
9447,1922
9451,1921
9455,1914
9459,1924
9463,1933
9467,1924
9471,1917
9475,1922
9479,1936
9483,1933
9487,1920
9491,1923
9495,1933
9499,1936
9503,1924
9507,1923
9511,1935
9515,1938
9519,1933
9523,1919
9527,1936
9531,1940
9535,1935
9539,1923
9543,1938
9547,1947
9551,1943
9555,1934
9559,1929
9563,1936
9567,1958
9571,1981
9575,2005
9579,2028
9583,2033
9587,2023
9591,2017
9595,2022
9599,2013
9603,1990
9607,1984
9611,1968
9615,1946
9619,1937
9623,1933
9627,1939
9631,1946
9635,1935
9639,1935
9643,1936
9647,1945
9651,1943
9655,1938
9659,1942
9663,1950
9667,1938
9671,1938
9675,1924
9679,1855
9683,1709
9687,1616
9691,1787
9695,2432
9699,3461
9703,4095
9707,4095
9711,4095
9715,4095
9719,3790
9723,2762
9727,2147
9731,1904
9735,1874
9739,1885
9743,1887
9747,1865
9751,1827
9755,1799
9759,1791
9763,1795
9767,1791
9771,1779
9775,1785
9779,1806
9783,1801
9787,1787
9791,1794
9795,1813
9799,1809
9803,1808
9807,1821
9811,1829
9815,1840
9819,1827
9823,1828
9827,1849
9831,1859
9835,1859
9839,1854
9843,1868
9847,1873
9851,1872
9855,1860
9859,1875
9863,1888
9867,1897
9871,1903
9875,1910
9879,1930
9883,1936
9887,1936
9891,1951
9895,1974
9899,1985
9903,1986
9907,1991
9911,2018
9915,2032
9919,2034
9923,2057
9927,2071
9931,2086
9935,2090
9939,2097
9943,2119
9947,2133
9951,2131
9955,2132
9959,2134
9963,2131
9967,2097
9971,2058
9975,2020
9979,1988
9983,1947
9987,1904
9991,1871
9995,1853
9999,1839
10003,1813
10007,1799
10011,1804
10015,1801
10019,1789
10023,1781
10027,1791
10031,1795
10035,1798
10039,1799
10043,1804
10047,1819
10051,1811
10055,1806
10059,1817
10063,1826
10067,1827
10071,1815
10075,1826
10079,1840
10083,1839
10087,1830
10091,1837
10095,1846
10099,1851
10103,1842
10107,1850
10111,1847
10115,1851
10119,1844
10123,1846
10127,1857
10131,1859
10135,1850
10139,1841
10143,1855
10147,1863
10151,1855
10155,1856
10159,1857
10163,1863
10167,1854
10171,1847
10175,1855
10179,1861
10183,1869
10187,1856
10191,1859
10195,1872
10199,1872
10203,1871
10207,1869
10211,1876
10215,1875
10219,1866
10223,1863
10227,1874
10231,1877
10235,1872
10239,1872
10243,1885
10247,1892
10251,1883
10255,1872
10259,1881
10263,1891
10267,1890
10271,1883
10275,1889
10279,1899
10283,1894
10287,1888
10291,1891
10295,1899
10299,1904
10303,1892
10307,1904
10311,1904
10315,1917
10319,1906
10323,1920
10327,1905
10331,1910
10335,1904
10339,1905
10343,1914
10347,1918
10351,1909
10355,1902
10359,1902
10363,1925
10367,1925
10371,1911
10375,1915
10379,1929
10383,1951
10387,1968
10391,1987
10395,2011
10399,2014
10403,2020
10407,2006
10411,2006
10415,1991
10419,1972
10423,1957
10427,1949
10431,1936
10435,1926
10439,1919
10443,1925
10447,1936
10451,1936
10455,1930
10459,1936
10463,1939
10467,1938
10471,1932
10475,1934
10479,1937
10483,1936
10487,1927
10491,1909
10495,1840
10499,1701
10503,1606
10507,1780
10511,2407
10515,3423
10519,4095
10523,4095
10527,4095
10531,4095
10535,3710
10539,2705
10543,2119
10547,1904
10551,1870
10555,1877
10559,1873
10563,1847
10567,1813
10571,1797
10575,1783
10579,1783
10583,1775
10587,1769
10591,1776
10595,1783
10599,1791
10603,1783
10607,1790
10611,1803
10615,1808
10619,1807
10623,1810
10627,1818
10631,1826
10635,1817
10639,1827
10643,1838
10647,1846
10651,1850
10655,1849
10659,1857
10663,1873
10667,1865
10671,1859
10675,1872
10679,1885
10683,1888
10687,1888
10691,1903
10695,1922
10699,1927
10703,1930
10707,1938
10711,1968
10715,1978
10719,1983
10723,1984
10727,2016
10731,2035
10735,2043
10739,2063
10743,2090
10747,2101
10751,2105
10755,2104
10759,2125
10763,2139
10767,2146
10771,2150
10775,2151
10779,2140
10783,2113
10787,2071
10791,2035
10795,2001
10799,1963
10803,1913
10807,1884
10811,1872
10815,1841
10819,1814
10823,1798
10827,1808
10831,1807
10835,1798
10839,1790
10843,1797
10847,1808
10851,1807
10855,1802
10859,1814
10863,1819
10867,1810
10871,1806
10875,1808
10879,1823
10883,1824
10887,1824
10891,1835
10895,1846
10899,1843
10903,1831
10907,1834
10911,1845
10915,1853
10919,1842
10923,1856
10927,1865
10931,1863
10935,1857
10939,1856
10943,1869
10947,1872
10951,1863
10955,1851
10959,1862
10963,1872
10967,1874
10971,1866
10975,1870
10979,1871
10983,1868
10987,1867
10991,1870
10995,1883
10999,1883
11003,1874
11007,1877
11011,1890
11015,1890
11019,1883
11023,1876
11027,1888
11031,1893
11035,1887
11039,1877
11043,1890
11047,1899
11051,1893
11055,1886
11059,1892
11063,1906
11067,1904
11071,1898
11075,1902
11079,1917
11083,1904
11087,1894
11091,1904
11095,1911
11099,1919
11103,1910
11107,1915
11111,1916
11115,1918
11119,1907
11123,1907
11127,1927
11131,1923
11135,1911
11139,1907
11143,1919
11147,1927
11151,1920
11155,1923
11159,1925
11163,1936
11167,1933
11171,1919
11175,1931
11179,1937
11183,1938
11187,1933
11191,1935
11195,1943
11199,1946
11203,1936
11207,1937
11211,1942
11215,1938
11219,1940
11223,1965
11227,2005
11231,2023
11235,2013
11239,2022
11243,2035
11247,2034
11251,2018
11255,1997
11259,1995
11263,1995
11267,1981
11271,1942
11275,1936
11279,1955
11283,1958
11287,1937
11291,1941
11295,1949
11299,1949
11303,1945
11307,1943
11311,1954
11315,1956
11319,1943
11323,1950
11327,1961
11331,1931
11335,1808
11339,1674
11343,1648
11347,1950
11351,2651
11355,3792
11359,4095
11363,4095
11367,4095
11371,4095
11375,3184
11379,2416
11383,2017
11387,1904
11391,1905
11395,1923
11399,1903
11403,1865
11407,1837
11411,1821
11415,1810
11419,1806
11423,1803
11427,1809
11431,1808
11435,1805
11439,1808
11443,1821
11447,1835
11451,1829
11455,1819
11459,1827
11463,1842
11467,1850
11471,1843
11475,1843
11479,1856
11483,1850
11487,1847
11491,1862
11495,1875
11499,1879
11503,1873
11507,1877
11511,1898
11515,1904
11519,1903
11523,1904
11527,1921
11531,1935
11535,1936
11539,1946
11543,1963
11547,1972
11551,1981
11555,1985
11559,2014
11563,2037
11567,2046
11571,2042
11575,2064
11579,2093
11583,2099
11587,2103
11591,2118
11595,2137
11599,2149
11603,2160
11607,2167
11611,2180
11615,2176
11619,2156
11623,2124
11627,2093
11631,2043
11635,1987
11639,1953
11643,1918
11647,1890
11651,1857
11655,1831
11659,1821
11663,1815
11667,1799
11671,1791
11675,1799
11679,1807
11683,1798
11687,1786
11691,1792
11695,1807
11699,1810
11703,1811
11707,1821
11711,1829
11715,1827
11719,1826
11723,1839
11727,1846
11731,1850
11735,1841
11739,1843
11743,1847
11747,1869
11751,1858
11755,1851
11759,1856
11763,1865
11767,1859
11771,1856
11775,1870
11779,1872
11783,1869
11787,1856
11791,1859
11795,1873
11799,1867
11803,1862
11807,1867
11811,1878
11815,1882
11819,1872
11823,1870
11827,1885
11831,1893
11835,1885
11839,1881
11843,1889
11847,1899
11851,1885
11855,1886
11859,1879
11863,1905
11867,1901
11871,1888
11875,1891
11879,1904
11883,1901
11887,1891
11891,1897
11895,1904
11899,1904
11903,1893
11907,1902
11911,1917
11915,1921
11919,1910
11923,1904
11927,1911
11931,1911
11935,1905
11939,1904
11943,1914
11947,1919
11951,1916
11955,1907
11959,1920
11963,1929
11967,1922
11971,1910
11975,1919
11979,1935
11983,1933
11987,1921
11991,1926
11995,1936
11999,1927
12003,1929
12007,1931
12011,1941
12015,1943
12019,1932
12023,1923
12027,1936
12031,1942
12035,1935
12039,1935
12043,1947
12047,1954
12051,1941
12055,1943
12059,1958
12063,1963
12067,1954
12071,1939
12075,1951
12079,1983
12083,2003
12087,2006
12091,2023
12095,2054
12099,2052
12103,2031
12107,2020
12111,2019
12115,2015
12119,1998
12123,1973
12127,1958
12131,1958
12135,1955
12139,1951
12143,1965
12147,1966
12151,1951
12155,1949
12159,1922
12163,1961
12167,1942
12171,1951
12175,1957
12179,1973
12183,1969
12187,1938
12191,1841
12195,1715
12199,1657
12203,1901
12207,2543
12211,3565
12215,4095
12219,4095
12223,4095
12227,4093
12231,3027
12235,2334
12239,2011
12243,1963
12247,1952
12251,1939
12255,1907
12259,1893
12263,1877
12267,1855
12271,1842
12275,1840
12279,1841
12283,1834
12287,1822
12291,1827
12295,1840
12299,1847
12303,1840
12307,1845
12311,1869
12315,1871
12319,1867
12323,1857
12327,1875
12331,1891
12335,1886
12339,1879
12343,1904
12347,1907
12351,1907
12355,1904
12359,1917
12363,1935
12367,1936
12371,1937
12375,1951
12379,1965
12383,1969
12387,1968
12391,1970
12395,1994
12399,2001
12403,2007
12407,2023
12411,2037
12415,2058
12419,2061
12423,2071
12427,2096
12431,2107
12435,2118
12439,2126
12443,2143
12447,2157
12451,2156
12455,2159
12459,2182
12463,2204
12467,2199
12471,2178
12475,2166
12479,2148
12483,2107
12487,2064
12491,2027
12495,1990
12499,1957
12503,1910
12507,1877
12511,1857
12515,1839
12519,1821
12523,1811
12527,1825
12531,1823
12535,1809
12539,1808
12543,1810
12547,1810
12551,1808
12555,1808
12559,1836
12563,1842
12567,1840
12571,1837
12575,1843
12579,1856
12583,1856
12587,1845
12591,1866
12595,1887
12599,1879
12603,1867
12607,1869
12611,1873
12615,1877
12619,1872
12623,1873
12627,1886
12631,1889
12635,1887
12639,1875
12643,1889
12647,1890
12651,1874
12655,1872
12659,1885
12663,1904
12667,1895
12671,1886
12675,1889
12679,1897
12683,1892
12687,1886
12691,1890
12695,1904
12699,1903
12703,1897
12707,1903
12711,1914
12715,1915
12719,1901
12723,1899
12727,1904
12731,1915
12735,1914
12739,1904
12743,1917
12747,1916
12751,1904
12755,1898
12759,1908
12763,1920
12767,1911
12771,1907
12775,1905
12779,1923
12783,1926
12787,1913
12791,1920
12795,1931
12799,1933
12803,1921
12807,1925
12811,1936
12815,1931
12819,1923
12823,1930
12827,1934
12831,1936
12835,1933
12839,1929
12843,1935
12847,1940
12851,1938
12855,1937
12859,1939
12863,1950
12867,1939
12871,1936
12875,1952
12879,1963
12883,1949
12887,1939
12891,1952
12895,1962
12899,1956
12903,1954
12907,1983
12911,2017
12915,2027
12919,2019
12923,2034
12927,2061
12931,2047
12935,2032
12939,2004
12943,2000
12947,2001
12951,1978
12955,1967
12959,1968
12963,1977
12967,1972
12971,1958
12975,1967
12979,1968
12983,1966
12987,1961
12991,1973
12995,1984
12999,1978
13003,1955
13007,1957
13011,1988
13015,1971
13019,1881
13023,1751
13027,1695
13031,1872
13035,2384
13039,3182
13043,4095
13047,4095
13051,4095
13055,3568
13059,2736
13063,2220
13067,2006
13071,1968
13075,1977
13079,1960
13083,1941
13087,1872
13091,1879
13095,1902
13099,1873
13103,1849
13107,1853
13111,1868
13115,1870
13119,1863
13123,1867
13127,1883
13131,1884
13135,1879
13139,1872
13143,1899
13147,1903
13151,1895
13155,1904
13159,1914
13163,1925
13167,1921
13171,1919
13175,1923
13179,1939
13183,1943
13187,1941
13191,1959
13195,1971
13199,1978
13203,1975
13207,1987
13211,1999
13215,2002
13219,2001
13223,2027
13227,2042
13231,2043
13235,2035
13239,2060
13243,2082
13247,2106
13251,2118
13255,2120
13259,2139
13263,2153
13267,2151
13271,2163
13275,2182
13279,2198
13283,2193
13287,2193
13291,2206
13295,2215
13299,2203
13303,2166
13307,2150
13311,2128
13315,2094
13319,2032
13323,1984
13327,1962
13331,1930
13335,1888
13339,1871
13343,1869
13347,1865
13351,1852
13355,1834
13359,1842
13363,1838
13367,1827
13371,1820
13375,1834
13379,1845
13383,1843
13387,1825
13391,1839
13395,1850
13399,1847
13403,1840
13407,1851
13411,1871
13415,1857
13419,1846
13423,1856
13427,1862
13431,1870
13435,1857
13439,1861
13443,1874
13447,1878
13451,1872
13455,1870
13459,1881
13463,1887
13467,1885
13471,1878
13475,1887
13479,1886
13483,1879
13487,1872
13491,1874
13495,1891
13499,1891
13503,1881
13507,1888
13511,1895
13515,1892
13519,1883
13523,1885
13527,1890
13531,1889
13535,1881
13539,1886
13543,1901
13547,1907
13551,1895
13555,1895
13559,1907
13563,1909
13567,1902
13571,1887
13575,1904
13579,1909
13583,1895
13587,1891
13591,1904
13595,1914
13599,1914
13603,1905
13607,1910
13611,1921
13615,1913
13619,1901
13623,1907
13627,1920
13631,1906
13635,1918
13639,1913
13643,1921
13647,1924
13651,1919
13655,1915
13659,1923
13663,1932
13667,1931
13671,1924
13675,1927
13679,1934
13683,1931
13687,1930
13691,1933
13695,1938
13699,1931
13703,1920
13707,1929
13711,1941
13715,1937
13719,1931
13723,1949
13727,1981
13731,2001
13735,2003
13739,2007
13743,2020
13747,2022
13751,2005
13755,1993
13759,1995
13763,1995
13767,1969
13771,1936
13775,1925
13779,1936
13783,1936
13787,1933
13791,1937
13795,1945
13799,1944
13803,1935
13807,1936
13811,1941
13815,1943
13819,1936
13823,1936
13827,1948
13831,1946
13835,1906
13839,1818
13843,1700
13847,1667
13851,1911
13855,2541
13859,3475
13863,4095
13867,4095
13871,4095
13875,3877
13879,2897
13883,2267
13887,1984
13891,1934
13895,1936
13899,1922
13903,1887
13907,1861
13911,1849
13915,1831
13919,1813
13923,1809
13927,1818
13931,1819
13935,1811
13939,1813
13943,1831
13947,1837
13951,1823
13955,1823
13959,1835
13963,1838
13967,1836
13971,1834
13975,1840
13979,1856
13983,1847
13987,1852
13991,1857
13995,1868
13999,1870
14003,1874
14007,1879
14011,1899
14015,1905
14019,1901
14023,1904
14027,1921
14031,1936
14035,1930
14039,1936
14043,1952
14047,1968
14051,1959
14055,1959
14059,1989
14063,2006
14067,2018
14071,2030
14075,2058
14079,2083
14083,2093
14087,2098
14091,2122
14095,2141
14099,2148
14103,2150
14107,2166
14111,2179
14115,2186
14119,2165
14123,2146
14127,2127
14131,2089
14135,2026
14139,1985
14143,1962
14147,1931
14151,1887
14155,1851
14159,1838
14163,1835
14167,1811
14171,1797
14175,1808
14179,1810
14183,1806
14187,1792
14191,1803
14195,1819
14199,1815
14203,1808
14207,1810
14211,1818
14215,1821
14219,1807
14223,1815
14227,1831
14231,1827
14235,1819
14239,1823
14243,1834
14247,1840
14251,1829
14255,1827
14259,1841
14263,1852
14267,1840
14271,1838
14275,1845
14279,1859
14283,1853
14287,1846
14291,1856
14295,1862
14299,1855
14303,1843
14307,1854
14311,1869
14315,1866
14319,1855
14323,1859
14327,1872
14331,1871
14335,1858
14339,1866
14343,1877
14347,1887
14351,1873
14355,1873
14359,1898
14363,1901
14367,1889
14371,1888
14375,1898
14379,1907
14383,1904
14387,1898
14391,1909
14395,1919
14399,1911
14403,1904
14407,1903
14411,1916
14415,1911
14419,1904
14423,1905
14427,1915
14431,1918
14435,1909
14439,1911
14443,1924
14447,1919
14451,1909
14455,1917
14459,1920
14463,1927
14467,1925
14471,1918
14475,1927
14479,1931
14483,1921
14487,1919
14491,1925
14495,1935
14499,1927
14503,1927
14507,1936
14511,1947
14515,1946
14519,1933
14523,1936
14527,1949
14531,1952
14535,1937
14539,1939
14543,1950
14547,1951
14551,1941
14555,1946
14559,1959
14563,1965
14567,1952
14571,1938
14575,1950
14579,1968
14583,1962
14587,1953
14591,1957
14595,1963
14599,1968
14603,1981
14607,2020
14611,2032
14615,2031
14619,2027
14623,2035
14627,2054
14631,2033
14635,2014
14639,2003
14643,2003
14647,1979
14651,1950
14655,1940
14659,1956
14663,1968
14667,1961
14671,1959
14675,1967
14679,1968
14683,1962
14687,1953
14691,1965
14695,1968
14699,1959
14703,1948
14707,1957
14711,1951
14715,1865
14719,1719
14723,1630
14727,1803
14731,2394
14735,3317
14739,4095
14743,4095
14747,4095
14751,4095
14755,4095
14759,3025
14763,2289
14767,1937
14771,1871
14775,1881
14779,1885
14783,1855
14787,1825
14791,1813
14795,1807
14799,1798
14803,1781
14807,1787
14811,1799
14815,1793
14819,1783
14823,1798
14827,1808
14831,1808
14835,1803
14839,1811
14843,1826
14847,1828
14851,1811
14855,1809
14859,1830
14863,1836
14867,1833
14871,1829
14875,1845
14879,1855
14883,1856
14887,1850
14891,1867
14895,1871
14899,1870
14903,1862
14907,1873
14911,1893
14915,1895
14919,1891
14923,1908
14927,1926
14931,1933
14935,1909
14939,1968
14943,1973
14947,2000
14951,2000
14955,2032
14959,2055
14963,2065
14967,2109
14971,2093
14975,2086
14979,2124
14983,2172
14987,2160
14991,2160
14995,2174
14999,2165
15003,2138
15007,2113
15011,2089
15015,2034
15019,1990
15023,1955
15027,1921
15031,1889
15035,1856
15039,1843
15043,1843
15047,1839
15051,1818
15055,1808
15059,1809
15063,1810
15067,1808
15071,1814
15075,1826
15079,1829
15083,1814
15087,1821
15091,1825
15095,1839
15099,1833
15103,1826
15107,1838
15111,1846
15115,1838
15119,1829
15123,1829
15127,1851
15131,1845
15135,1836
15139,1837
15143,1847
15147,1860
15151,1851
15155,1855
15159,1857
15163,1860
15167,1856
15171,1857
15175,1859
15179,1863
15183,1856
15187,1858
15191,1872
15195,1874
15199,1866
15203,1853
15207,1869
15211,1875
15215,1876
15219,1871
15223,1878
15227,1891
15231,1891
15235,1878
15239,1881
15243,1888
15247,1895
15251,1885
15255,1885
15259,1901
15263,1904
15267,1899
15271,1889
15275,1899
15279,1909
15283,1904
15287,1907
15291,1913
15295,1917
15299,1905
15303,1901
15307,1916
15311,1925
15315,1919
15319,1916
15323,1921
15327,1933
15331,1925
15335,1917
15339,1925
15343,1931
15347,1932
15351,1919
15355,1919
15359,1934
15363,1936
15367,1931
15371,1927
15375,1936
15379,1941
15383,1936
15387,1936
15391,1936
15395,1943
15399,1939
15403,1934
15407,1941
15411,1947
15415,1948
15419,1946
15423,1949
15427,1955
15431,1953
15435,1948
15439,1951
15443,1959
15447,1953
15451,1947
15455,1955
15459,1965
15463,1968
15467,1959
15471,1953
15475,1967
15479,1968
15483,1952
15487,1947
15491,1962
15495,1968
15499,1957
15503,1951
15507,1959
15511,1973
15515,1971
15519,1961
15523,1965
15527,1968
15531,1967
15535,1977
15539,2005
15543,2037
15547,2059
15551,2054
15555,2058
15559,2064
15563,2060
15567,2032
15571,2018
15575,2019
15579,2005
15583,1973
15587,1965
15591,1975
15595,1981
15599,1973
15603,1965
15607,1973
15611,1990
15615,1979
15619,1971
15623,1968
15627,1978
15631,1969
15635,1964
15639,1969
15643,1981
15647,1939
15651,1809
15655,1658
15659,1631
15663,1968
15667,2762
15671,4095
15675,4095
15679,4095
15683,4095
15687,4095
15691,4095
15695,3024
15699,2249
15703,1890
15707,1851
15711,1880
15715,1873
15719,1849
15723,1825
15727,1808
15731,1792
15735,1777
15739,1769
15743,1776
15747,1776
15751,1770
15755,1769
15759,1789
15763,1790
15767,1787
15771,1790
15775,1792
15779,1798
15783,1801
15787,1795
15791,1808
15795,1825
15799,1813
15803,1814
15807,1822
15811,1834
15815,1837
15819,1835
15823,1840
15827,1854
15831,1856
15835,1854
15839,1865
15843,1879
15847,1887
15851,1892
15855,1902
15859,1921
15863,1930
15867,1938
15871,1935
15875,1966
15879,1937
15883,1996
15887,2002
15891,2041
15895,2065
15899,2098
15903,2070
15907,2090
15911,2128
15915,2128
15919,2137
15923,2150
15927,2166
15931,2174
15935,2160
15939,2145
15943,2124
15947,2085
15951,2034
15955,1991
15959,1967
15963,1931
15967,1881
15971,1850
15975,1840
15979,1825
15983,1808
15987,1806
15991,1808
15995,1808
15999,1797
16003,1797
16007,1806
16011,1808
16015,1803
16019,1794
16023,1808
16027,1827
16031,1814
16035,1808
16039,1825
16043,1827
16047,1838
16051,1828
16055,1827
16059,1837
16063,1840
16067,1831
16071,1830
16075,1843
16079,1846
16083,1847
16087,1843
16091,1857
16095,1861
16099,1854
16103,1849
16107,1856
16111,1868
16115,1872
16119,1865
16123,1870
16127,1873
16131,1872
16135,1861
16139,1872
16143,1882
16147,1887
16151,1872
16155,1873
16159,1878
16163,1883
16167,1875
16171,1884
16175,1897
16179,1899
16183,1891
16187,1885
16191,1890
16195,1903
16199,1898
16203,1897
16207,1898
16211,1906
16215,1893
16219,1895
16223,1893
16227,1904
16231,1902
16235,1894
16239,1901
16243,1905
16247,1904
16251,1895
16255,1903
16259,1909
16263,1903
16267,1899
16271,1897
16275,1906
16279,1919
16283,1907
16287,1905
16291,1913
16295,1919
16299,1911
16303,1910
16307,1920
16311,1926
16315,1923
16319,1913
16323,1922
16327,1935
16331,1933
16335,1920
16339,1922
16343,1937
16347,1938
16351,1925
16355,1930
16359,1942
16363,1936
16367,1936
16371,1935
16375,1943
16379,1938
16383,1933
16387,1936
16391,1940
16395,1956
16399,1947
16403,1937
16407,1943
16411,1955
16415,1946
16419,1945
16423,1953
16427,1961
16431,1947
16435,1950
16439,1959
16443,1972
16447,1968
16451,1951
16455,1965
16459,1986
16463,2012
16467,2021
16471,2032
16475,2060
16479,2064
16483,2045
16487,2030
16491,2026
16495,2019
16499,2005
16503,1983
16507,1973
16511,1971
16515,1965
16519,1959
16523,1961
16527,1966
16531,1965
16535,1958
16539,1964
16543,1971
16547,1968
16551,1950
16555,1952
16559,1968
16563,1969
16567,1952
16571,1904
16575,1780
16579,1625
16583,1605
16587,1966
16591,2801
16595,4095
16599,4095
16603,4095
16607,4095
16611,4095
16615,3997
16619,2864
16623,2164
16627,1885
16631,1847
16635,1871
16639,1871
16643,1845
16647,1809
16651,1777
16655,1766
16659,1773
16663,1772
16667,1763
16671,1769
16675,1774
16679,1782
16683,1763
16687,1767
16691,1781
16695,1792
16699,1792
16703,1792
16707,1798
16711,1803
16715,1807
16719,1810
16723,1819
16727,1827
16731,1827
16735,1828
16739,1840
16743,1863
16747,1869
16751,1869
16755,1870
16759,1879
16763,1879
16767,1879
16771,1886
16775,1911
16779,1921
16783,1927
16787,1930
16791,1951
16795,1959
16799,1965
16803,1983
16807,2010
16811,2029
16815,2043
16819,2060
16823,2083
16827,2112
16831,2119
16835,2129
16839,2149
16843,2166
16847,2167
16851,2163
16855,2176
16859,2179
16863,2160
16867,2114
16871,2080
16875,2055
16879,2009
16883,1955
16887,1908
16891,1887
16895,1867
16899,1823
16903,1813
16907,1817
16911,1792
16915,1810
16919,1791
16923,1813
16927,1803
16931,1804
16935,1792
16939,1779
16943,1809
16947,1815
16951,1809
16955,1806
16959,1819
16963,1821
16967,1811
16971,1818
16975,1830
16979,1838
16983,1823
16987,1829
16991,1840
16995,1843
16999,1837
17003,1834
17007,1846
17011,1855
17015,1850
17019,1845
17023,1856
17027,1863
17031,1856
17035,1843
17039,1858
17043,1870
17047,1872
17051,1858
17055,1871
17059,1883
17063,1877
17067,1872
17071,1872
17075,1872
17079,1878
17083,1869
17087,1872
17091,1878
17095,1886
17099,1874
17103,1873
17107,1883
17111,1887
17115,1889
17119,1887
17123,1891
17127,1905
17131,1899
17135,1899
17139,1903
17143,1907
17147,1904
17151,1895
17155,1904
17159,1908
17163,1904
17167,1893
17171,1897
17175,1904
17179,1905
17183,1903
17187,1904
17191,1923
17195,1929
17199,1920
17203,1918
17207,1925
17211,1927
17215,1923
17219,1918
17223,1927
17227,1935
17231,1918
17235,1914
17239,1923
17243,1936
17247,1936
17251,1925
17255,1931
17259,1938
17263,1936
17267,1929
17271,1935
17275,1942
17279,1947
17283,1936
17287,1934
17291,1941
17295,1942
17299,1937
17303,1935
17307,1939
17311,1950
17315,1936
17319,1939
17323,1945
17327,1951
17331,1949
17335,1942
17339,1943
17343,1948
17347,1947
17351,1936
17355,1942
17359,1946
17363,1949
17367,1943
17371,1975
17375,2007
17379,2022
17383,2025
17387,2029
17391,2039
17395,2045
17399,2029
17403,2010
17407,2011
17411,2005
17415,1971
17419,1947
17423,1953
17427,1964
17431,1954
17435,1949
17439,1962
17443,1970
17447,1967
17451,1954
17455,1957
17459,1965
17463,1965
17467,1951
17471,1957
17475,1967
17479,1936
17483,1813
17487,1664
17491,1612
17495,1860
17499,2551
17503,3697
17507,4095
17511,4095
17515,4095
17519,4095
17523,3895
17527,2833
17531,2177
17535,1905
17539,1872
17543,1902
17547,1887
17551,1858
17555,1831
17559,1813
17563,1801
17567,1785
17571,1783
17575,1789
17579,1789
17583,1785
17587,1791
17591,1808
17595,1811
17599,1810
17603,1808
17607,1818
17611,1825
17615,1825
17619,1826
17623,1835
17627,1846
17631,1852
17635,1844
17639,1847
17643,1863
17647,1865
17651,1859
17655,1873
17659,1888
17663,1893
17667,1887
17671,1899
17675,1904
17679,1910
17683,1909
17687,1930
17691,1958
17695,1975
17699,1975
17703,1984
17707,2006
17711,2028
17715,2035
17719,2057
17723,2084
17727,2109
17731,2110
17735,2121
17739,2139
17743,2160
17747,2160
17751,2166
17755,2191
17759,2215
17763,2211
17767,2190
17771,2162
17775,2137
17779,2101
17783,2045
17787,2000
17791,1968
17795,1927
17799,1890
17803,1857
17807,1847
17811,1834
17815,1809
17819,1802
17823,1808
17827,1803
17831,1799
17835,1794
17839,1806
17843,1809
17847,1808
17851,1792
17855,1795
17859,1813
17863,1812
17867,1809
17871,1810
17875,1853
17879,1873
17883,1798
17887,1829
17891,1841
17895,1851
17899,1845
17903,1841
17907,1842
17911,1852
17915,1851
17919,1847
17923,1853
17927,1863
17931,1859
17935,1860
17939,1872
17943,1876
17947,1867
17951,1866
17955,1862
17959,1874
17963,1872
17967,1870
17971,1877
17975,1888
17979,1890
17983,1882
17987,1885
17991,1889
17995,1889
17999,1875
18003,1874
18007,1894
18011,1898
18015,1886
18019,1891
18023,1891
18027,1901
18031,1895
18035,1895
18039,1903
18043,1915
18047,1909
18051,1897
18055,1894
18059,1909
18063,1911
18067,1904
18071,1904
18075,1917
18079,1918
18083,1911
18087,1911
18091,1923
18095,1932
18099,1917
18103,1921
18107,1927
18111,1932
18115,1919
18119,1914
18123,1933
18127,1936
18131,1926
18135,1925
18139,1939
18143,1942
18147,1939
18151,1935
18155,1936
18159,1950
18163,1947
18167,1936
18171,1939
18175,1953
18179,1951
18183,1936
18187,1943
18191,1959
18195,1953
18199,1941
18203,1942
18207,1957
18211,1954
18215,1953
18219,1953
18223,1970
18227,1969
18231,1963
18235,1957
18239,1961
18243,1968
18247,1964
18251,1958
18255,1972
18259,1978
18263,1963
18267,1963
18271,1982
18275,2019
18279,2043
18283,2039
18287,2062
18291,2075
18295,2074
18299,2043
18303,2027
18307,2032
18311,2017
18315,1993
18319,1974
18323,1975
18327,1978
18331,1969
18335,1968
18339,1973
18343,1981
18347,1970
18351,1968
18355,1973
18359,1973
18363,1968
18367,1973
18371,1978
18375,1988
18379,1957
18383,1862
18387,1734
18391,1670
18395,1847
18399,2414
18403,3323
18407,4095
18411,4095
18415,4095
18419,4095
18423,3161
18427,2431
18431,2066
18435,1958
18439,1961
18443,1957
18447,1932
18451,1898
18455,1872
18459,1859
18463,1845
18467,1835
18471,1836
18475,1840
18479,1840
18483,1845
18487,1858
18491,1867
18495,1862
18499,1857
18503,1859
18507,1879
18511,1883
18515,1874
18519,1872
18523,1888
18527,1903
18531,1899
18535,1889
18539,1903
18543,1925
18547,1923
18551,1925
18555,1936
18559,1947
18563,1949
18567,1947
18571,1968
18575,1984
18579,1988
18583,1967
18587,1998
18591,2015
18595,2029
18599,2032
18603,2045
18607,2070
18611,2086
18615,2096
18619,2098
18623,2122
18627,2146
18631,2151
18635,2160
18639,2175
18643,2187
18647,2192
18651,2192
18655,2213
18659,2225
18663,2219
18667,2201
18671,2178
18675,2147
18679,2098
18683,2035
18687,2001
18691,1975
18695,1939
18699,1904
18703,1875
18707,1869
18711,1856
18715,1826
18719,1809
18723,1814
18727,1815
18731,1808
18735,1806
18739,1819
18743,1835
18747,1825
18751,1824
18755,1819
18759,1825
18763,1853
18767,1820
18771,1836
18775,1845
18779,1840
18783,1833
18787,1843
18791,1859
18795,1889
18799,1873
18803,1856
18807,1867
18811,1869
18815,1859
18819,1865
18823,1871
18827,1875
18831,1872
18835,1871
18839,1881
18843,1879
18847,1855
18851,1863
18855,1861
18859,1873
18863,1870
18867,1858
18871,1867
18875,1879
18879,1881
18883,1870
18887,1873
18891,1888
18895,1899
18899,1879
18903,1877
18907,1889
18911,1886
18915,1877
18919,1877
18923,1895
18927,1895
18931,1889
18935,1874
18939,1891
18943,1890
18947,1887
18951,1888
18955,1903
18959,1904
18963,1900
18967,1900
18971,1899
18975,1917
18979,1914
18983,1904
18987,1901
18991,1912
18995,1913
18999,1907
19003,1909
19007,1910
19011,1917
19015,1905
19019,1899
19023,1909
19027,1915
19031,1918
19035,1920
19039,1924
19043,1931
19047,1922
19051,1920
19055,1936
19059,1940
19063,1933
19067,1922
19071,1930
19075,1936
19079,1935
19083,1930
19087,1933
19091,1936
19095,1939
19099,1933
19103,1936
19107,1949
19111,1946
19115,1941
19119,1941
19123,1952
19127,1958
19131,1945
19135,1939
19139,1963
19143,1988
19147,2002
19151,2010
19155,2026
19159,2037
19163,2032
19167,2021
19171,2021
19175,2013
19179,2000
19183,1980
19187,1963
19191,1957
19195,1953
19199,1945
19203,1949
19207,1959
19211,1962
19215,1950
19219,1939
19223,1943
19227,1955
19231,1950
19235,1942
19239,1954
19243,1955
19247,1947
19251,1915
19255,1816
19259,1692
19263,1648
19267,1914
19271,2594
19275,3645
19279,4095
19283,4095
19287,4095
19291,4095
19295,3090
19299,2355
19303,2007
19307,1930
19311,1933
19315,1920
19319,1897
19323,1878
19327,1859
19331,1829
19335,1810
19339,1811
19343,1814
19347,1808
19351,1803
19355,1815
19359,1822
19363,1819
19367,1811
19371,1822
19375,1836
19379,1840
19383,1840
19387,1847
19391,1861
19395,1855
19399,1847
19403,1845
19407,1863
19411,1872
19415,1869
19419,1878
19423,1894
19427,1903
19431,1893
19435,1895
19439,1915
19443,1925
19447,1922
19451,1929
19455,1936
19459,1967
19463,1970
19467,1979
19471,1994
19475,2010
19479,2019
19483,2026
19487,2045
19491,2070
19495,2091
19499,2103
19503,2113
19507,2138
19511,2160
19515,2163
19519,2174
19523,2192
19527,2203
19531,2194
19535,2192
19539,2190
19543,2169
19547,2128
19551,2083
19555,2043
19559,2005
19563,1953
19567,1904
19571,1878
19575,1863
19579,1837
19583,1810
19587,1808
19591,1815
19595,1814
19599,1801
19603,1810
19607,1817
19611,1809
19615,1805
19619,1808
19623,1812
19627,1809
19631,1809
19635,1809
19639,1823
19643,1836
19647,1826
19651,1823
19655,1830
19659,1840
19663,1840
19667,1831
19671,1840
19675,1846
19679,1849
19683,1840
19687,1837
19691,1864
19695,1871
19699,1859
19703,1867
19707,1875
19711,1872
19715,1863
19719,1856
19723,1899
19727,1918
19731,1869
19735,1861
19739,1872
19743,1872
19747,1865
19751,1859
19755,1883
19759,1893
19763,1884
19767,1877
19771,1885
19775,1885
19779,1887
19783,1872
19787,1879
19791,1893
19795,1889
19799,1874
19803,1881
19807,1899
19811,1889
19815,1884
19819,1889
19823,1903
19827,1899
19831,1893
19835,1891
19839,1909
19843,1915
19847,1905
19851,1904
19855,1905
19859,1917
19863,1905
19867,1903
19871,1911
19875,1919
19879,1925
19883,1913
19887,1921
19891,1920
19895,1919
19899,1917
19903,1927
19907,1935
19911,1937
19915,1926
19919,1926
19923,1936
19927,1936
19931,1925
19935,1922
19939,1929
19943,1934
19947,1927
19951,1925
19955,1941
19959,1944
19963,1939
19967,1939
19971,1936
19975,1948
19979,1945
19983,1935
19987,1945
19991,1959
19995,1957
