Timestamp,ECG Data
4,1955
7,1953
11,1949
15,1936
19,1933
23,1982
27,1951
31,1952
35,1931
39,1968
43,1940
47,1967
51,1958
55,1983
59,1975
63,1984
67,1979
71,1987
75,1985
79,1987
83,1987
87,1990
91,2007
95,2003
99,2000
103,2005
107,2027
111,2034
115,2029
119,2032
123,2043
127,2067
131,2069
135,2071
139,2075
143,2097
147,2096
151,2112
155,2121
159,2143
163,2147
167,2158
171,2170
175,2192
179,2202
183,2205
187,2219
191,2231
195,2242
199,2243
203,2245
207,2258
211,2270
215,2256
219,2243
223,2225
227,2198
231,2157
235,2112
239,2072
243,2021
247,1987
251,1946
255,1915
259,1901
263,1872
267,1854
271,1844
275,1838
279,1840
283,1827
287,1830
291,1837
295,1840
299,1831
303,1825
307,1840
311,1840
315,1827
319,1834
323,1845
327,1842
331,1840
335,1834
339,1840
343,1840
347,1841
351,1834
355,1830
359,1846
363,1847
367,1845
371,1840
375,1845
379,1841
383,1835
387,1839
391,1843
395,1845
399,1835
403,1826
407,1840
411,1842
415,1840
419,1829
423,1829
427,1839
431,1827
435,1825
439,1827
443,1837
447,1835
451,1823
455,1830
459,1839
463,1841
467,1824
471,1836
475,1845
479,1840
483,1829
487,1831
491,1837
495,1836
499,1827
503,1821
507,1828
511,1835
515,1835
519,1830
523,1839
527,1840
531,1838
535,1842
539,1872
543,1905
547,1907
551,1908
555,1919
559,1925
563,1923
567,1901
571,1904
575,1891
579,1877
583,1849
587,1837
591,1842
595,1846
599,1837
603,1835
607,1837
611,1846
615,1843
619,1841
623,1859
627,1859
631,1853
635,1850
639,1861
643,1867
647,1856
651,1799
655,1702
659,1622
663,1696
667,2078
671,2749
675,3777
679,4095
683,4095
687,4095
691,3279
695,2490
699,2047
703,1895
707,1872
711,1886
715,1855
719,1830
723,1806
727,1792
731,1769
735,1754
739,1760
743,1766
747,1771
751,1762
755,1776
759,1781
763,1786
767,1782
771,1787
775,1807
779,1808
783,1808
787,1808
791,1826
795,1834
799,1827
803,1836
807,1840
811,1854
815,1853
819,1851
823,1872
827,1872
831,1878
835,1882
839,1899
843,1911
847,1921
851,1919
855,1931
859,1952
863,1963
867,1966
871,1977
875,2001
879,2015
883,2025
887,2038
891,2064
895,2086
899,2095
903,2107
907,2126
911,2143
915,2152
919,2158
923,2175
927,2143
931,2193
935,2195
939,2208
943,2215
947,2177
951,2169
955,2139
959,2112
963,2070
967,2042
971,1968
975,1936
979,1906
983,1861
987,1841
991,1835
995,1811
999,1794
1003,1789
1007,1789
1011,1796
1015,1787
1019,1781
1023,1790
1027,1805
1031,1809
1035,1804
1039,1808
1043,1813
1047,1813
1051,1808
1055,1823
1059,1826
1063,1831
1067,1822
1071,1827
1075,1839
1079,1837
1083,1833
1087,1828
1091,1839
1095,1835
1099,1829
1103,1835
1107,1845
1111,1851
1115,1840
1119,1840
1123,1840
1127,1839
1131,1844
1135,1837
1139,1846
1143,1849
1147,1847
1151,1838
1155,1845
1159,1853
1163,1846
1167,1847
1171,1854
1175,1866
1179,1858
1183,1850
1187,1856
1191,1859
1195,1864
1199,1862
1203,1863
1207,1877
1211,1872
1215,1871
1219,1866
1223,1889
1227,1909
1231,1931
1235,1949
1239,1977
1243,1973
1247,1967
1251,1945
1255,1937
1259,1943
1263,1922
1267,1890
1271,1887
1275,1899
1279,1890
1283,1897
1287,1895
1291,1901
1295,1901
1299,1891
1303,1890
1307,1899
1311,1901
1315,1893
1319,1900
1323,1907
1327,1919
1331,1911
1335,1884
1339,1815
1343,1721
1347,1693
1351,1904
1355,2449
1359,3239
1363,4095
1367,4095
1371,4095
1375,3550
1379,2688
1383,2161
1387,1954
1391,1920
1395,1919
1399,1901
1403,1886
1407,1863
1411,1845
1415,1833
1419,1822
1423,1825
1427,1827
1431,1813
1435,1819
1439,1821
1443,1839
1447,1840
1451,1835
1455,1840
1459,1854
1463,1853
1467,1846
1471,1856
1475,1867
1479,1871
1483,1876
1487,1882
1491,1898
1495,1889
1499,1893
1503,1904
1507,1911
1511,1935
1515,1927
1519,1932
1523,1953
1527,1956
1531,1957
1535,1962
1539,1971
1543,1986
1547,2000
1551,2001
1555,2021
1559,2038
1563,2046
1567,2055
1571,2070
1575,2095
1579,2101
1583,2112
1587,2125
1591,2143
1595,2159
1599,2158
1603,2167
1607,2192
1611,2195
1615,2197
1619,2201
1623,2215
1627,2227
1631,2211
1635,2182
1639,2159
1643,2125
1647,2080
1651,2031
1655,1999
1659,1965
1663,1922
1667,1879
1671,1863
1675,1853
1679,1842
1683,1818
1687,1817
1691,1824
1695,1821
1699,1808
1703,1823
1707,1825
1711,1835
1715,1824
1719,1819
1723,1834
1727,1840
1731,1840
1735,1835
1739,1842
1743,1853
1747,1847
1751,1842
1755,1849
1759,1849
1763,1851
1767,1837
1771,1853
1775,1853
1779,1857
1783,1842
1787,1847
1791,1856
1795,1856
1799,1850
1803,1851
1807,1856
1811,1853
1815,1850
1819,1842
1823,1854
1827,1861
1831,1855
1835,1859
1839,1819
1843,1898
1847,1856
1851,1852
1855,1864
1859,1867
1863,1866
1867,1896
1871,1858
1875,1879
1879,1901
1883,1843
1887,1873
1891,1883
1895,1886
1899,1883
1903,1886
1907,1891
1911,1891
1915,1879
1919,1887
1923,1904
1927,1935
1931,1950
1935,1969
1939,1993
1943,1985
1947,1968
1951,1946
1955,1952
1959,1949
1963,1934
1967,1911
1971,1898
1975,1907
1979,1904
1983,1903
1987,1902
1991,1917
1995,1909
1999,1906
2003,1904
2007,1917
2011,1911
2015,1905
2019,1911
2023,1920
2027,1934
2031,1906
2035,1861
2039,1776
2043,1710
2047,1791
2051,2153
2055,2777
2059,3705
2063,4095
2067,4095
2071,3798
2075,2907
2079,2297
2083,2002
2087,1934
2091,1938
2095,1936
2099,1906
2103,1887
2107,1873
2111,1862
2115,1845
2119,1830
2123,1840
2127,1844
2131,1840
2135,1843
2139,1852
2143,1856
2147,1855
2151,1853
2155,1870
2159,1871
2163,1875
2167,1874
2171,1887
2175,1901
2179,1903
2183,1894
2187,1904
2191,1920
2195,1923
2199,1909
2203,1919
2207,1935
2211,1943
2215,1949
2219,1946
2223,1967
2227,1968
2231,1972
2235,1969
2239,1988
2243,2002
2247,2008
2251,2013
2255,2025
2259,2043
2263,2047
2267,2061
2271,2082
2275,2102
2279,2113
2283,2124
2287,2133
2291,2147
2295,2160
2299,2160
2303,2173
2307,2192
2311,2201
2315,2204
2319,2198
2323,2203
2327,2206
2331,2190
2335,2163
2339,2147
2343,2125
2347,2076
2351,2032
2355,1995
2359,1969
2363,1926
2367,1902
2371,1877
2375,1865
2379,1854
2383,1829
2387,1827
2391,1834
2395,1838
2399,1830
2403,1840
2407,1838
2411,1843
2415,1840
2419,1847
2423,1847
2427,1855
2431,1846
2435,1840
2439,1840
2443,1859
2447,1860
2451,1855
2455,1857
2459,1870
2463,1861
2467,1856
2471,1866
2475,1874
2479,1869
2483,1857
2487,1859
2491,1863
2495,1869
2499,1857
2503,1863
2507,1871
2511,1875
2515,1872
2519,1867
2523,1879
2527,1876
2531,1872
2535,1867
2539,1872
2543,1877
2547,1872
2551,1877
2555,1887
2559,1891
2563,1885
2567,1875
2571,1882
2575,1893
2579,1894
2583,1889
2587,1888
2591,1895
2595,1890
2599,1883
2603,1885
2607,1904
2611,1921
2615,1936
2619,1967
2623,1989
2627,1991
2631,1981
2635,1959
2639,1955
2643,1946
2647,1931
2651,1919
2655,1915
2659,1913
2663,1904
2667,1894
2671,1901
2675,1913
2679,1914
2683,1906
2687,1912
2691,1920
2695,1917
2699,1913
2703,1916
2707,1929
2711,1926
2715,1920
2719,1904
2723,1855
2727,1775
2731,1744
2735,1882
2739,2283
2743,2859
2747,3685
2751,4095
2755,3927
2759,3093
2763,2409
2767,2011
2771,1907
2775,1923
2779,1915
2783,1899
2787,1943
2791,1895
2795,1891
2799,1871
2803,1867
2807,1868
2811,1877
2815,1862
2819,1873
2823,1887
2827,1888
2831,1885
2835,1882
2839,1902
2843,1903
2847,1899
2851,1897
2855,1919
2859,1933
2863,1936
2867,1919
2871,1926
2875,1938
2879,1946
2883,1949
2887,1957
2891,1965
2895,1974
2899,1972
2903,1979
2907,1983
2911,1997
2915,2003
2919,2007
2923,2032
2927,2039
2931,2042
2935,2052
2939,2065
2943,2077
2947,2087
2951,2105
2955,2115
2959,2131
2963,2127
2967,2138
2971,2150
2975,2160
2979,2165
2983,2160
2987,2173
2991,2189
2995,2192
2999,2192
3003,2198
3007,2203
3011,2199
3015,2189
3019,2173
3023,2163
3027,2138
3031,2096
3035,2046
3039,2007
3043,1985
3047,1952
3051,1919
3055,1891
3059,1879
3063,1869
3067,1856
3071,1856
3075,1868
3079,1860
3083,1849
3087,1842
3091,1852
3095,1857
3099,1855
3103,1859
3107,1869
3111,1870
3115,1871
3119,1868
3123,1877
3127,1879
3131,1873
3135,1863
3139,1875
3143,1883
3147,1888
3151,1878
3155,1882
3159,1887
3163,1883
3167,1884
3171,1891
3175,1892
3179,1885
3183,1876
3187,1872
3191,1888
3195,1886
3199,1881
3203,1881
3207,1888
3211,1889
3215,1886
3219,1877
3223,1889
3227,1892
3231,1890
3235,1888
3239,1895
3243,1902
3247,1879
3251,1893
3255,1914
3259,1939
3263,1949
3267,1970
3271,1988
3275,1984
3279,1958
3283,1933
3287,1933
3291,1937
3295,1911
3299,1893
3303,1901
3307,1906
3311,1910
3315,1898
3319,1900
3323,1917
3327,1917
3331,1906
3335,1902
3339,1906
3343,1916
3347,1910
3351,1904
3355,1915
3359,1923
3363,1927
3367,1905
3371,1862
3375,1815
3379,1840
3383,1999
3387,2347
3391,2825
3395,3395
3399,3541
3403,3127
3407,2615
3411,2137
3415,1897
3419,1858
3423,1904
3427,1938
3431,1943
3435,1936
3439,1930
3443,1919
3447,1913
3451,1904
3455,1914
3459,1919
3463,1917
3467,1906
3471,1920
3475,1918
3479,1920
3483,1925
3487,1934
3491,1943
3495,1942
3499,1938
3503,1958
3507,1967
3511,1973
3515,1966
3519,1975
3523,1987
3527,2000
3531,1989
3535,1989
3539,2003
3543,2020
3547,2016
3551,2015
3555,2028
3559,2043
3563,2054
3567,2053
3571,2070
3575,2079
3579,2083
3583,2087
3587,2098
3591,2116
3595,2117
3599,2123
3603,2131
3607,2158
3611,2160
3615,2167
3619,2162
3623,2172
3627,2186
3631,2179
3635,2190
3639,2202
3643,2211
3647,2202
3651,2192
3655,2190
3659,2188
3663,2166
3667,2141
3671,2112
3675,2087
3679,2061
3683,2019
3687,1989
3691,1968
3695,1941
3699,1914
3703,1901
3707,1881
3711,1878
3715,1868
3719,1871
3723,1873
3727,1879
3731,1869
3735,1859
3739,1872
3743,1872
3747,1874
3751,1873
3755,1884
3759,1905
3763,1890
3767,1890
3771,1884
3775,1887
3779,1899
3783,1899
3787,1893
3791,1900
3795,1895
3799,1903
3803,1896
3807,1905
3811,1908
3815,1902
3819,1913
3823,1920
3827,1931
3831,1910
3835,1905
3839,1908
3843,1920
3847,1914
3851,1910
3855,1905
3859,1927
3863,1918
3867,1914
3871,1930
3875,1931
3879,1933
3883,1936
3887,1973
3891,1994
3895,1998
3899,1986
3903,1967
3907,1955
3911,1943
3915,1936
3919,1918
3923,1933
3927,1922
3931,1907
3935,1909
3939,1927
3943,1936
3947,1922
3951,1915
3955,1923
3959,1931
3963,1914
3967,1918
3971,1924
3975,1935
3979,1936
3983,1938
3987,1946
3991,1930
3995,1877
3999,1822
4003,1850
4007,2015
4011,2317
4015,2725
4019,3178
4023,3243
4027,2911
4031,2462
4035,2064
4039,1890
4043,1865
4047,1883
4051,1918
4055,1938
4059,1936
4063,1935
4067,1922
4071,1922
4075,1925
4079,1920
4083,1918
4087,1918
4091,1920
4095,1923
4099,1919
4103,1920
4107,1935
4111,1936
4115,1938
4119,1943
4123,1948
4127,1962
4131,1968
4135,1973
4139,1978
4143,1983
4147,1983
4151,1978
4155,1997
4159,2006
4163,2001
4167,1999
4171,2003
4175,2022
4179,2028
4183,2027
4187,2034
4191,2042
4195,2053
4199,2052
4203,2063
4207,2077
4211,2064
4215,2064
4219,2072
4223,2082
4227,2095
4231,2108
4235,2117
4239,2130
4243,2138
4247,2139
4251,2134
4255,2146
4259,2149
4263,2153
4267,2159
4271,2161
4275,2157
4279,2144
4283,2128
4287,2113
4291,2096
4295,2062
4299,2016
4303,1985
4307,1967
4311,1936
4315,1904
4319,1882
4323,1871
4327,1858
4331,1843
4335,1840
4339,1840
4343,1841
4347,1837
4351,1828
4355,1840
4359,1845
4363,1842
4367,1840
4371,1855
4375,1857
4379,1856
4383,1844
4387,1845
4391,1854
4395,1867
4399,1863
4403,1861
4407,1871
4411,1874
4415,1865
4419,1863
4423,1872
4427,1872
4431,1866
4435,1867
4439,1872
4443,1872
4447,1874
4451,1862
4455,1878
4459,1875
4463,1872
4467,1869
4471,1866
4475,1873
4479,1872
4483,1870
4487,1867
4491,1871
4495,1871
4499,1866
4503,1879
4507,1875
4511,1872
4515,1869
4519,1870
4523,1882
4527,1890
4531,1903
4535,1917
4539,1936
4543,1950
4547,1949
4551,1918
4555,1919
4559,1913
4563,1902
4567,1895
4571,1881
4575,1886
4579,1885
4583,1872
4587,1883
4591,1885
4595,1883
4599,1879
4603,1879
4607,1885
4611,1884
4615,1875
4619,1877
4623,1889
4627,1895
4631,1893
4635,1889
4639,1872
4643,1818
4647,1757
4651,1751
4655,1933
4659,2330
4663,2851
4667,3500
4671,3849
4675,3438
4679,2841
4683,2274
4687,1963
4691,1872
4695,1875
4699,1887
4703,1902
4707,1900
4711,1901
4715,1856
4719,1852
4723,1819
4727,1860
4731,1854
4735,1840
4739,1840
4743,1853
4747,1855
4751,1862
4755,1870
4759,1872
4763,1865
4767,1866
4771,1879
4775,1889
4779,1889
4783,1887
4787,1890
4791,1899
4795,1904
4799,1904
4803,1908
4807,1923
4811,1925
4815,1936
4819,1933
4823,1943
4827,1952
4831,1955
4835,1955
4839,1970
4843,1977
4847,1982
4851,1995
4855,2005
4859,2017
4863,2027
4867,2031
4871,2046
4875,2065
4879,2077
4883,2075
4887,2097
4891,2109
4895,2122
4899,2117
4903,2126
4907,2144
4911,2159
4915,2160
4919,2158
4923,2167
4927,2176
4931,2161
4935,2149
4939,2131
4943,2109
4947,2066
4951,2022
4955,2000
4959,1972
4963,1937
4967,1904
4971,1889
4975,1874
4979,1861
4983,1851
4987,1845
4991,1846
4995,1844
4999,1841
5003,1842
5007,1847
5011,1855
5015,1841
5019,1845
5023,1856
5027,1856
5031,1859
5035,1860
5039,1871
5043,1865
5047,1857
5051,1863
5055,1870
5059,1876
5063,1869
5067,1868
5071,1871
5075,1872
5079,1875
5083,1872
5087,1875
5091,1877
5095,1879
5099,1870
5103,1863
5107,1872
5111,1875
5115,1872
5119,1870
5123,1876
5127,1873
5131,1871
5135,1872
5139,1879
5143,1876
5147,1872
5151,1870
5155,1883
5159,1886
5163,1872
5167,1877
5171,1888
5175,1893
5179,1887
5183,1874
5187,1872
5191,1894
5195,1886
5199,1877
5203,1885
5207,1903
5211,1902
5215,1895
5219,1902
5223,1904
5227,1905
5231,1901
5235,1905
5239,1906
5243,1913
5247,1909
5251,1903
5255,1910
5259,1917
5263,1913
5267,1916
5271,1915
5275,1924
5279,1914
5283,1907
5287,1919
5291,1921
5295,1915
5299,1921
5303,1933
5307,1936
5311,1933
5315,1921
5319,1938
5323,1964
5327,1983
5331,1982
5335,1986
5339,2006
5343,2011
5347,1993
5351,1974
5355,1974
5359,1970
5363,1959
5367,1929
5371,1930
5375,1927
5379,1932
5383,1926
5387,1934
5391,1936
5395,1933
5399,1927
5403,1927
5407,1937
5411,1935
5415,1936
5419,1939
5423,1947
5427,1947
5431,1951
5435,1934
5439,1878
5443,1787
5447,1733
5451,1902
5455,2352
5459,3009
5463,3922
5467,4095
5471,4095
5475,3645
5479,2832
5483,2255
5487,1999
5491,1943
5495,1949
5499,1937
5503,1926
5507,1901
5511,1872
5515,1851
5519,1844
5523,1853
5527,1859
5531,1838
5535,1842
5539,1852
5543,1856
5547,1850
5551,1856
5555,1859
5559,1866
5563,1862
5567,1872
5571,1876
5575,1885
5579,1881
5583,1881
5587,1892
5591,1921
5595,1909
5599,1903
5603,1901
5607,1923
5611,1926
5615,1894
5619,1926
5623,1943
5627,1952
5631,1967
5635,1963
5639,1966
5643,1983
5647,1978
5651,1984
5655,2004
5659,2015
5663,2025
5667,2029
5671,2043
5675,2065
5679,2080
5683,2094
5687,2106
5691,2128
5695,2128
5699,2140
5703,2158
5707,2162
5711,2171
5715,2170
5719,2185
5723,2201
5727,2209
5731,2202
5735,2193
5739,2182
5743,2166
5747,2115
5751,2088
5755,2058
5759,2021
5763,1980
5767,1947
5771,1933
5775,1909
5779,1883
5783,1866
5787,1863
5791,1862
5795,1847
5799,1840
5803,1849
5807,1854
5811,1854
5815,1841
5819,1843
5823,1843
5827,1849
5831,1847
5835,1845
5839,1855
5843,1857
5847,1855
5851,1855
5855,1857
5859,1859
5863,1855
5867,1841
5871,1856
5875,1854
5879,1858
5883,1843
5887,1850
5891,1857
5895,1853
5899,1849
5903,1861
5907,1868
5911,1873
5915,1857
5919,1853
5923,1856
5927,1862
5931,1854
5935,1855
5939,1855
5943,1865
5947,1859
5951,1862
5955,1869
5959,1867
5963,1861
5967,1866
5971,1870
5975,1872
5979,1872
5983,1861
5987,1867
5991,1872
5995,1872
5999,1861
6003,1881
6007,1883
6011,1882
6015,1873
6019,1875
6023,1879
6027,1886
6031,1878
6035,1872
6039,1885
6043,1881
6047,1887
6051,1884
6055,1886
6059,1894
6063,1886
6067,1887
6071,1885
6075,1897
6079,1889
6083,1888
6087,1892
6091,1904
6095,1904
6099,1897
6103,1901
6107,1902
6111,1907
6115,1904
6119,1905
6123,1907
6127,1914
6131,1910
6135,1906
6139,1911
6143,1920
6147,1909
6151,1904
6155,1919
6159,1921
6163,1913
6167,1919
6171,1922
6175,1929
6179,1919
6183,1918
6187,1916
6191,1933
6195,1925
6199,1907
6203,1918
6207,1930
6211,1936
6215,1936
6219,1932
6223,1936
6227,1929
6231,1931
6235,1927
6239,1946
6243,1937
6247,1925
6251,1932
6255,1936
6259,1947
6263,1936
6267,1935
6271,1946
6275,1959
6279,1973
6283,1985
6287,2002
6291,2024
6295,2023
6299,2021
6303,2011
6307,2001
6311,1995
6315,1981
6319,1974
6323,1959
6327,1949
6331,1941
6335,1943
6339,1959
6343,1956
6347,1949
6351,1949
6355,1954
6359,1949
6363,1947
6367,1943
6371,1950
6375,1952
6379,1953
6383,1954
6387,1959
6391,1962
6395,1903
6399,1803
6403,1721
6407,1805
6411,2209
6415,2855
6419,3813
6423,4095
6427,4095
6431,4095
6435,3373
6439,2585
6443,2122
6447,1949
6451,1932
6455,1939
6459,1934
6463,1903
6467,1870
6471,1859
6475,1855
6479,1843
6483,1831
6487,1843
6491,1840
6495,1855
6499,1840
6503,1857
6507,1829
6511,1843
6515,1849
6519,1850
6523,1886
6527,1871
6531,1898
6535,1861
6539,1871
6543,1866
6547,1837
6551,1877
6555,1904
6559,1904
6563,1899
6567,1901
6571,1914
6575,1919
6579,1923
6583,1917
6587,1932
6591,1936
6595,1947
6599,1953
6603,1967
6607,1984
6611,1986
6615,1985
6619,2000
6623,2014
6627,2026
6631,2022
6635,2042
6639,2067
6643,2079
6647,2091
6651,2100
6655,2116
6659,2133
6663,2139
6667,2144
6671,2167
6675,2176
6679,2179
6683,2190
6687,2192
6691,2202
6695,2192
6699,2171
6703,2154
6707,2128
6711,2093
6715,2046
6719,2011
6723,1977
6727,1952
6731,1910
6735,1895
6739,1879
6743,1863
6747,1853
6751,1839
6755,1842
6759,1841
6763,1838
6767,1824
6771,1830
6775,1839
6779,1829
6783,1833
6787,1840
6791,1844
6795,1842
6799,1840
6803,1843
6807,1843
6811,1846
6815,1850
6819,1851
6823,1857
6827,1856
6831,1842
6835,1856
6839,1857
6843,1861
6847,1857
6851,1858
6855,1863
6859,1863
6863,1857
6867,1857
6871,1868
6875,1873
6879,1869
6883,1859
6887,1860
6891,1872
6895,1870
6899,1867
6903,1868
6907,1881
6911,1876
6915,1883
6919,1872
6923,1885
6927,1873
6931,1876
6935,1872
6939,1885
6943,1876
6947,1872
6951,1872
6955,1878
6959,1888
6963,1885
6967,1873
6971,1893
6975,1903
6979,1895
6983,1893
6987,1898
6991,1904
6995,1895
6999,1900
7003,1903
7007,1906
7011,1915
7015,1902
7019,1904
7023,1906
7027,1904
7031,1910
7035,1917
7039,1919
7043,1918
7047,1919
7051,1915
7055,1920
7059,1920
7063,1920
7067,1918
7071,1927
7075,1935
7079,1930
7083,1929
7087,1936
7091,1937
7095,1943
7099,1935
7103,1936
7107,1945
7111,1939
7115,1936
7119,1933
7123,1952
7127,1949
7131,1942
7135,1941
7139,1947
7143,1953
7147,1954
7151,1951
7155,1955
7159,1959
7163,1961
7167,1948
7171,1953
7175,1962
7179,1959
7183,1951
7187,1967
7191,1968
7195,1959
7199,1956
7203,1963
7207,1975
7211,1968
7215,1967
7219,1965
7223,1977
7227,1971
7231,1967
7235,1968
7239,1971
7243,1971
7247,1966
7251,1965
7255,1968
7259,1968
7263,1967
7267,1967
7271,1968
7275,1968
7279,1969
7283,1983
7287,2001
7291,2019
7295,2032
7299,2034
7303,2046
7307,2064
7311,2047
7315,2023
7319,2022
7323,2019
7327,2000
7331,1977
7335,1959
7339,1965
7343,1969
7347,1968
7351,1968
7355,1974
7359,1984
7363,1973
7367,1968
7371,1971
7375,1973
7379,1969
7383,1967
7387,1977
7391,1989
7395,1980
7399,1965
7403,1897
7407,1794
7411,1730
7415,1872
7419,2361
7423,3082
7427,4095
7431,4095
7435,4095
7439,4080
7443,3115
7447,2416
7451,2063
7455,1962
7459,1974
7463,1955
7467,1943
7471,1917
7475,1890
7479,1872
7483,1865
7487,1862
7491,1866
7495,1859
7499,1846
7503,1858
7507,1870
7511,1865
7515,1856
7519,1861
7523,1877
7527,1881
7531,1877
7535,1894
7539,1899
7543,1909
7547,1915
7551,1905
7555,1914
7559,1917
7563,1917
7567,1919
7571,1934
7575,1936
7579,1936
7583,1943
7587,1955
7591,1968
7595,1966
7599,1979
7603,1982
7607,1995
7611,2000
7615,1994
7619,2010
7623,2023
7627,2024
7631,2032
7635,2054
7639,2070
7643,2080
7647,2087
7651,2099
7655,2119
7659,2139
7663,2150
7667,2154
7671,2172
7675,2176
7679,2174
7683,2189
7687,2199
7691,2215
7695,2211
7699,2199
7703,2193
7707,2192
7711,2160
7715,2126
7719,2093
7723,2061
7727,2016
7731,1978
7735,1940
7739,1915
7743,1895
7747,1875
7751,1862
7755,1859
7759,1842
7763,1835
7767,1830
7771,1837
7775,1840
7779,1835
7783,1821
7787,1839
7791,1836
7795,1839
7799,1835
7803,1839
7807,1845
7811,1847
7815,1849
7819,1847
7823,1856
7827,1861
7831,1850
7835,1850
7839,1859
7843,1863
7847,1867
7851,1865
7855,1872
7859,1870
7863,1861
7867,1872
7871,1872
7875,1872
7879,1863
7883,1857
7887,1869
7891,1872
7895,1871
7899,1858
7903,1871
7907,1874
7911,1876
7915,1868
7919,1872
7923,1873
7927,1882
7931,1867
7935,1874
7939,1877
7943,1877
7947,1873
7951,1872
7955,1874
7959,1874
7963,1876
7967,1869
7971,1872
7975,1885
7979,1875
7983,1875
7987,1886
7991,1895
7995,1893
7999,1880
8003,1894
8007,1899
8011,1903
8015,1894
8019,1899
8023,1909
8027,1899
8031,1891
8035,1904
8039,1907
8043,1923
8047,1907
8051,1904
8055,1914
8059,1917
8063,1917
8067,1920
8071,1923
8075,1930
8079,1922
8083,1923
8087,1926
8091,1927
8095,1922
8099,1915
8103,1924
8107,1930
8111,1923
8115,1919
8119,1927
8123,1936
8127,1943
8131,1935
8135,1932
8139,1946
8143,1938
8147,1938
8151,1936
8155,1941
8159,1942
8163,1946
8167,1945
8171,1946
8175,1952
8179,1939
8183,1937
8187,1950
8191,1957
8195,1951
8199,1946
8203,1953
8207,1966
8211,1957
8215,1947
8219,1953
8223,1966
8227,1965
8231,1946
8235,1957
8239,1958
8243,1967
8247,1963
8251,1965
8255,1963
8259,1974
8263,1968
8267,1967
8271,1968
8275,1978
8279,1973
8283,1975
8287,1977
8291,1974
8295,1971
8299,1982
8303,2001
8307,2032
8311,2037
8315,2046
8319,2055
8323,2060
8327,2094
8331,2028
8335,2009
8339,2010
8343,2000
8347,1975
8351,1968
8355,1982
8359,1986
8363,2004
8367,1966
8371,1984
8375,2018
8379,1979
8383,1975
8387,1981
8391,1984
8395,1979
8399,1978
8403,1984
8407,1989
8411,1971
8415,1915
8419,1819
8423,1776
8427,1859
8431,2191
8435,2730
8439,3506
8443,4095
8447,4095
8451,3487
8455,2762
8459,2242
8463,2010
8467,1955
8471,1978
8475,1985
8479,1968
8483,1950
8487,1932
8491,1906
8495,1890
8499,1901
8503,1887
8507,1885
8511,1903
8515,1903
8519,1904
8523,1910
8527,1901
8531,1903
8535,1914
8539,1927
8543,1921
8547,1925
8551,1920
8555,1936
8559,1940
8563,1936
8567,1940
8571,1950
8575,1965
8579,1959
8583,1966
8587,1977
8591,1986
8595,1994
8599,1991
8603,2000
8607,2006
8611,2014
8615,2017
8619,2026
8623,2039
8627,2057
8631,2047
8635,2064
8639,2075
8643,2090
8647,2095
8651,2107
8655,2123
8659,2129
8663,2143
8667,2149
8671,2163
8675,2173
8679,2173
8683,2173
8687,2188
8691,2207
8695,2208
8699,2203
8703,2203
8707,2203
8711,2195
8715,2176
8719,2161
8723,2135
8727,2099
8731,2064
8735,2032
8739,2010
8743,1981
8747,1939
8751,1909
8755,1887
8759,1872
8763,1856
8767,1840
8771,1839
8775,1846
8779,1840
8783,1822
8787,1824
8791,1829
8795,1826
8799,1834
8803,1844
8807,1847
8811,1841
8815,1830
8819,1831
8823,1844
8827,1855
8831,1850
8835,1849
8839,1857
8843,1858
8847,1853
8851,1857
8855,1874
8859,1878
8863,1872
8867,1865
8871,1869
8875,1872
8879,1872
8883,1872
8887,1878
8891,1885
8895,1874
8899,1871
8903,1871
8907,1878
8911,1873
8915,1860
8919,1857
8923,1871
8927,1871
8931,1872
8935,1871
8939,1872
8943,1877
8947,1872
8951,1862
8955,1865
8959,1877
8963,1874
8967,1867
8971,1870
8975,1879
8979,1875
8983,1875
8987,1887
8991,1881
8995,1883
8999,1878
9003,1885
9007,1891
9011,1893
9015,1889
9019,1895
9023,1911
9027,1906
9031,1890
9035,1891
9039,1904
9043,1907
9047,1908
9051,1909
9055,1915
9059,1914
9063,1901
9067,1904
9071,1912
9075,1921
9079,1910
9083,1913
9087,1927
9091,1920
9095,1917
9099,1913
9103,1920
9107,1926
9111,1934
9115,1920
9119,1923
9123,1923
9127,1926
9131,1921
9135,1923
9139,1932
9143,1931
9147,1927
9151,1930
9155,1939
9159,1949
9163,1936
9167,1936
9171,1938
9175,1947
9179,1941
9183,1941
9187,1954
9191,1950
9195,1945
9199,1941
9203,1947
9207,1965
9211,1954
9215,1959
9219,1955
9223,1956
9227,1952
9231,1955
9235,1952
9239,1911
9243,1963
9247,1955
9251,1951
9255,1970
9259,1989
9263,2000
9267,2013
9271,2070
9275,2013
9279,2033
9283,2009
9287,2006
9291,1996
9295,1991
9299,1971
9303,1967
9307,1970
9311,1966
9315,1963
9319,1966
9323,1968
9327,1966
9331,1953
9335,1965
9339,1959
9343,1954
9347,1949
9351,1955
9355,1966
9359,1973
9363,1963
9367,1953
9371,1903
9375,1842
9379,1808
9383,1931
9387,2246
9391,2704
9395,3282
9399,3666
9403,3365
9407,2864
9411,2337
9415,2009
9419,1929
9423,1939
9427,1958
9431,1971
9435,1962
9439,1950
9443,1941
9447,1927
9451,1928
9455,1935
9459,1927
9463,1922
9467,1921
9471,1935
9475,1932
9479,1919
9483,1919
9487,1936
9491,1945
9495,1941
9499,1943
9503,1950
9507,1966
9511,1966
9515,1955
9519,1968
9523,1984
9527,1989
9531,1990
9535,2000
9539,2000
9543,2000
9547,2000
9551,2006
9555,2018
9559,2023
9563,2018
9567,2026
9571,2038
9575,2044
9579,2046
9583,2062
9587,2087
9591,2103
9595,2111
9599,2103
9603,2115
9607,2135
9611,2143
9615,2143
9619,2164
9623,2185
9627,2185
9631,2178
9635,2180
9639,2188
9643,2194
9647,2190
9651,2197
9655,2209
9659,2213
9663,2202
9667,2192
9671,2174
9675,2151
9679,2122
9683,2087
9687,2064
9691,2029
9695,1995
9699,1968
9703,1943
9707,1922
9711,1901
9715,1885
9719,1879
9723,1878
9727,1871
9731,1862
9735,1856
9739,1868
9743,1861
9747,1851
9751,1847
9755,1856
9759,1863
9763,1851
9767,1857
9771,1867
9775,1871
9779,1866
9783,1867
9787,1868
9791,1875
9795,1882
9799,1876
9803,1887
9807,1889
9811,1887
9815,1874
9819,1888
9823,1905
9827,1899
9831,1893
9835,1899
9839,1899
9843,1898
9847,1879
9851,1889
9855,1893
9859,1889
9863,1879
9867,1877
9871,1890
9875,1894
9879,1885
9883,1881
9887,1891
9891,1894
9895,1882
9899,1875
9903,1886
9907,1887
9911,1891
9915,1885
9919,1891
9923,1899
9927,1898
9931,1889
9935,1891
9939,1904
9943,1897
9947,1890
9951,1884
9955,1898
9959,1887
9963,1893
9967,1898
9971,1904
9975,1905
9979,1893
9983,1894
9987,1902
9991,1907
9995,1907
9999,1902
10003,1905
10007,1914
10011,1904
10015,1904
10019,1907
10023,1913
10027,1916
10031,1915
10035,1908
10039,1921
10043,1921
10047,1911
10051,1920
10055,1930
10059,1926
10063,1919
10067,1913
10071,1920
10075,1919
10079,1922
10083,1920
10087,1930
10091,1931
10095,1922
10099,1915
10103,1925
10107,1931
10111,1931
10115,1926
10119,1926
10123,1936
10127,1936
10131,1927
10135,1936
10139,1945
10143,1965
10147,1965
10151,1981
10155,1995
10159,2003
10163,2038
10167,2011
10171,2000
10175,1950
10179,1963
10183,1968
10187,1967
10191,1943
10195,1923
10199,1934
10203,1921
10207,1938
10211,1938
10215,1935
10219,1938
10223,1940
10227,1936
10231,1943
10235,1936
10239,1945
10243,1941
10247,1939
10251,1936
10255,1925
10259,1856
10263,1769
10267,1805
10271,2043
10275,2480
10279,3049
10283,3751
10287,3915
10291,3373
10295,2781
10299,2263
10303,1994
10307,1930
10311,1932
10315,1932
10319,1931
10323,1932
10327,1911
10331,1901
10335,1879
10339,1877
10343,1883
10347,1875
10351,1882
10355,1883
10359,1891
10363,1890
10367,1895
10371,1903
10375,1908
10379,1903
10383,1903
10387,1910
10391,1917
10395,1913
10399,1917
10403,1925
10407,1930
10411,1932
10415,1936
10419,1937
10423,1949
10427,1950
10431,1947
10435,1953
10439,1968
10443,1973
10447,1977
10451,1981
10455,1991
10459,2000
10463,2001
10467,2013
10471,2030
10475,2037
10479,2039
10483,2054
10487,2069
10491,2091
10495,2097
10499,2107
10503,2125
10507,2130
10511,2143
10515,2143
10519,2160
10523,2175
10527,2183
10531,2192
10535,2199
10539,2208
10543,2202
10547,2199
10551,2192
10555,2190
10559,2177
10563,2143
10567,2112
10571,2082
10575,2053
10579,2000
10583,1971
10587,1947
10591,1920
10595,1893
10599,1874
10603,1862
10607,1849
10611,1843
10615,1840
10619,1839
10623,1843
10627,1842
10631,1836
10635,1833
10639,1841
10643,1840
10647,1840
10651,1843
10655,1851
10659,1853
10663,1856
10667,1850
10671,1863
10675,1869
10679,1855
10683,1861
10687,1871
10691,1872
10695,1874
10699,1872
10703,1874
10707,1873
10711,1875
10715,1867
10719,1875
10723,1885
10727,1873
10731,1872
10735,1877
10739,1874
10743,1878
10747,1877
10751,1872
10755,1885
10759,1879
10763,1875
10767,1871
10771,1878
10775,1887
10779,1878
10783,1877
10787,1881
10791,1892
10795,1887
10799,1882
10803,1886
10807,1889
10811,1889
10815,1879
10819,1889
10823,1894
10827,1893
10831,1893
10835,1891
10839,1904
10843,1902
10847,1894
10851,1904
10855,1907
10859,1910
10863,1905
10867,1905
10871,1915
10875,1915
10879,1907
10883,1913
10887,1909
10891,1911
10895,1906
10899,1909
10903,1923
10907,1925
10911,1920
10915,1922
10919,1926
10923,1922
10927,1927
10931,1919
10935,1934
10939,1927
10943,1931
10947,1924
10951,1923
10955,1938
10959,1937
10963,1934
10967,1936
10971,1935
10975,1937
10979,1935
10983,1936
10987,1937
10991,1948
10995,1936
10999,1933
11003,1947
11007,1949
11011,1943
11015,1936
11019,1939
11023,1951
11027,1950
11031,1946
11035,1953
11039,1965
11043,1962
11047,1950
11051,1985
11055,1995
11059,2017
11063,2025
11067,2018
11071,2032
11075,2032
11079,2021
11083,2000
11087,1997
11091,1986
11095,1971
11099,1949
11103,1949
11107,1950
11111,1918
11115,1953
11119,1963
11123,1958
11127,1957
11131,1941
11135,1948
11139,1958
11143,1954
11147,1949
11151,1952
11155,1954
11159,1947
11163,1872
11167,1786
11171,1758
11175,1939
11179,2387
11183,3025
11187,3952
11191,4095
11195,4095
11199,3413
11203,2695
11207,2205
11211,1985
11215,1943
11219,1945
11223,1942
11227,1930
11231,1903
11235,1888
11239,1893
11243,1875
11247,1869
11251,1866
11255,1869
11259,1866
11263,1856
11267,1859
11271,1872
11275,1871
11279,1866
11283,1872
11287,1872
11291,1887
11295,1892
11299,1903
11303,1895
11307,1905
11311,1906
11315,1906
11319,1911
11323,1919
11327,1919
11331,1911
11335,1936
11339,1951
11343,1946
11347,1952
11351,1957
11355,1968
11359,1979
11363,1978
11367,1984
11371,1998
11375,2007
11379,2017
11383,2019
11387,2037
11391,2046
11395,2063
11399,2077
11403,2096
11407,2102
11411,2115
11415,2121
11419,2132
11423,2151
11427,2160
11431,2159
11435,2176
11439,2190
11443,2195
11447,2202
11451,2209
11455,2222
11459,2208
11463,2194
11467,2162
11471,2140
11475,2109
11479,2067
11483,2026
11487,1995
11491,1959
11495,1922
11499,1887
11503,1873
11507,1866
11511,1840
11515,1827
11519,1837
11523,1829
11527,1828
11531,1819
11535,1825
11539,1831
11543,1840
11547,1826
11551,1833
11555,1840
11559,1835
11563,1837
11567,1844
11571,1852
11575,1852
11579,1844
11583,1841
11587,1852
11591,1851
11595,1853
11599,1843
11603,1857
11607,1863
11611,1860
11615,1855
11619,1862
11623,1866
11627,1867
11631,1858
11635,1858
11639,1865
11643,1862
11647,1855
11651,1863
11655,1872
11659,1872
11663,1858
11667,1863
11671,1872
11675,1878
11679,1874
11683,1869
11687,1872
11691,1876
11695,1872
11699,1868
11703,1876
11707,1874
11711,1871
11715,1867
11719,1875
11723,1883
11727,1872
11731,1872
11735,1878
11739,1890
11743,1884
11747,1874
11751,1877
11755,1886
11759,1895
11763,1883
11767,1887
11771,1898
11775,1903
11779,1891
11783,1893
11787,1902
11791,1905
11795,1901
11799,1890
11803,1902
11807,1910
11811,1910
11815,1906
11819,1919
11823,1917
11827,1920
11831,1911
11835,1921
11839,1920
11843,1920
11847,1913
11851,1915
11855,1925
11859,1925
11863,1921
11867,1919
11871,1927
11875,1933
11879,1921
11883,1918
11887,1931
11891,1932
11895,1920
11899,1923
11903,1933
11907,1936
11911,1939
11915,1929
11919,1931
11923,1948
11927,1943
11931,1938
11935,1936
11939,1947
11943,1949
11947,1939
11951,1946
11955,1943
11959,1952
11963,1968
11967,1981
11971,2003
11975,2007
11979,2017
11983,2018
11987,2029
11991,2032
11995,2006
11999,1984
12003,1990
12007,1971
12011,1947
12015,1919
12019,1953
12023,1952
12027,1943
12031,1945
12035,1953
12039,1955
12043,1957
12047,1951
12051,1958
12055,1959
12059,1961
12063,1952
12067,1954
12071,1965
12075,1906
12079,1809
12083,1723
12087,1787
12091,2128
12095,2699
12099,3503
12103,4095
12107,4095
12111,4058
12115,3147
12119,2464
12123,2089
12127,1953
12131,1937
12135,1951
12139,1936
12143,1909
12147,1879
12151,1859
12155,1860
12159,1858
12163,1840
12167,1840
12171,1843
12175,1847
12179,1840
12183,1849
12187,1859
12191,1872
12195,1872
12199,1872
12203,1879
12207,1899
12211,1887
12215,1878
12219,1883
12223,1898
12227,1899
12231,1904
12235,1911
12239,1923
12243,1925
12247,1925
12251,1935
12255,1951
12259,1957
12263,1961
12267,1966
12271,1972
12275,1978
12279,1975
12283,1989
12287,2001
12291,2022
12295,2019
12299,2035
12303,2047
12307,2068
12311,2077
12315,2085
12319,2102
12323,2127
12327,2133
12331,2139
12335,2158
12339,2167
12343,2176
12347,2177
12351,2181
12355,2203
12359,2213
12363,2221
12367,2222
12371,2219
12375,2207
12379,2190
12383,2154
12387,2122
12391,2087
12395,2044
12399,1994
12403,1965
12407,1925
12411,1897
12415,1872
12419,1862
12423,1855
12427,1840
12431,1822
12435,1828
12439,1823
12443,1824
12447,1818
12451,1825
12455,1834
12459,1838
12463,1836
12467,1835
12471,1839
12475,1840
12479,1835
12483,1839
12487,1844
12491,1849
12495,1849
12499,1850
12503,1857
12507,1851
12511,1843
12515,1842
12519,1841
12523,1858
12527,1862
12531,1859
12535,1861
12539,1859
12543,1865
12547,1858
12551,1862
12555,1871
12559,1870
12563,1872
12567,1861
12571,1872
12575,1873
12579,1867
12583,1858
12587,1870
12591,1873
12595,1871
12599,1871
12603,1875
12607,1876
12611,1872
12615,1866
12619,1865
12623,1871
12627,1875
12631,1874
12635,1877
12639,1878
12643,1875
12647,1878
12651,1878
12655,1876
12659,1878
12663,1878
12667,1879
12671,1888
12675,1892
12679,1883
12683,1885
12687,1890
12691,1892
12695,1889
12699,1899
12703,1904
12707,1911
12711,1904
12715,1895
12719,1904
12723,1906
12727,1914
12731,1904
12735,1909
12739,1911
12743,1917
12747,1914
12751,1916
12755,1915
12759,1923
12763,1915
12767,1915
12771,1923
12775,1920
12779,1925
12783,1919
12787,1922
12791,1927
12795,1920
12799,1923
12803,1930
12807,1937
12811,1933
12815,1927
12819,1936
12823,1933
12827,1935
12831,1929
12835,1936
12839,1966
12843,1985
12847,1998
12851,2006
12855,2019
12859,2018
12863,2020
12867,2014
12871,1999
12875,1993
12879,1971
12883,1954
12887,1954
12891,1938
12895,1934
12899,1935
12903,1973
12907,1951
12911,1946
12915,1934
12919,1957
12923,1949
12927,1949
12931,1953
12935,1941
12939,1951
12943,1951
12947,1941
12951,1904
12955,1820
12959,1733
12963,1783
12967,2117
12971,2690
12975,3504
12979,4095
12983,4095
12987,3939
12991,3035
12995,2387
12999,2045
13003,1968
13007,1968
13011,1963
13015,1952
13019,1931
13023,1919
13027,1894
13031,1878
13035,1865
13039,1869
13043,1872
13047,1867
13051,1873
13055,1872
13059,1875
13063,1882
13067,1879
13071,1891
13075,1900
13079,1898
13083,1901
13087,1902
13091,1909
13095,1910
13099,1915
13103,1926
13107,1927
13111,1936
13115,1938
13119,1950
13123,1956
13127,1952
13131,1950
13135,1957
13139,1982
13143,1985
13147,1987
13151,2000
13155,2016
13159,2025
13163,2017
13167,2034
13171,2058
13175,2079
13179,2094
13183,2098
13187,2112
13191,2133
13195,2133
13199,2143
13203,2159
13207,2178
13211,2181
13215,2192
13219,2208
13223,2220
13227,2222
13231,2225
13235,2239
13239,2243
13243,2242
13247,2233
13251,2222
13255,2196
13259,2162
13263,2118
13267,2079
13271,2042
13275,1999
13279,1958
13283,1930
13287,1905
13291,1887
13295,1857
13299,1850
13303,1840
13307,1840
13311,1827
13315,1819
13319,1818
13323,1827
13327,1822
13331,1827
13335,1835
13339,1847
13343,1843
13347,1840
13351,1840
13355,1847
13359,1849
13363,1839
13367,1849
13371,1870
13375,1869
13379,1862
13383,1859
13387,1871
13391,1871
13395,1869
13399,1862
13403,1873
13407,1873
13411,1870
13415,1866
13419,1867
13423,1876
13427,1874
13431,1865
13435,1872
13439,1874
13443,1875
13447,1876
13451,1873
13455,1887
13459,1874
13463,1877
13467,1866
13471,1872
13475,1877
13479,1872
13483,1872
13487,1879
13491,1879
13495,1879
13499,1872
13503,1888
13507,1889
13511,1883
13515,1882
13519,1892
13523,1889
13527,1893
13531,1885
13535,1887
13539,1889
13543,1901
13547,1895
13551,1889
13555,1899
13559,1899
13563,1899
13567,1899
13571,1905
13575,1904
13579,1904
13583,1904
13587,1909
13591,1915
13595,1909
13599,1908
13603,1920
13607,1918
13611,1905
13615,1899
13619,1904
13623,1913
13627,1917
13631,1906
13635,1917
13639,1931
13643,1923
13647,1917
13651,1923
13655,1935
13659,1935
13663,1921
13667,1936
13671,1936
13675,1936
13679,1922
13683,1933
13687,1946
13691,1937
13695,1930
13699,1930
13703,1964
13707,1987
13711,1990
13715,2001
13719,2009
13723,2029
13727,2023
13731,2001
13735,1987
13739,1989
13743,1974
13747,1957
13751,1943
13755,1938
13759,1941
13763,1936
13767,1941
13771,1950
13775,1947
13779,1942
13783,1939
13787,1961
13791,1954
13795,1942
13799,1936
13803,1951
13807,1962
13811,1950
13815,1909
13819,1840
13823,1787
13827,1831
13831,2073
13835,2528
13839,3137
13843,3966
13847,3950
13851,3314
13855,2685
13859,2187
13863,1959
13867,1923
13871,1947
13875,1962
13879,1957
13883,1937
13887,1943
13891,1914
13895,1898
13899,1894
13903,1891
13907,1898
13911,1890
13915,1889
13919,1904
13923,1921
13927,1935
13931,1931
13935,1929
13939,1936
13943,1936
13947,1922
13951,1936
13955,1946
13959,1953
13963,1965
13967,1971
13971,1983
13975,1981
13979,1980
13983,1983
13987,1991
13991,1994
13995,2000
13999,2004
14003,2016
14007,2032
14011,2037
14015,2034
14019,2047
14023,2064
14027,2071
14031,2071
14035,2080
14039,2099
14043,2123
14047,2116
14051,2128
14055,2142
14059,2153
14063,2162
14067,2190
14071,2204
14075,2203
14079,2213
14083,2215
14087,2229
14091,2240
14095,2226
14099,2226
14103,2227
14107,2228
14111,2219
14115,2193
14119,2165
14123,2139
14127,2112
14131,2055
14135,2022
14139,1990
14143,1961
14147,1925
14151,1904
14155,1887
14159,1873
14163,1857
14167,1845
14171,1856
14175,1850
14179,1856
14183,1833
14187,1833
14191,1837
14195,1839
14199,1840
14203,1841
14207,1841
14211,1840
14215,1840
14219,1843
14223,1857
14227,1859
14231,1853
14235,1856
14239,1867
14243,1859
14247,1856
14251,1869
14255,1878
14259,1875
14263,1871
14267,1875
14271,1882
14275,1889
14279,1872
14283,1885
14287,1891
14291,1883
14295,1876
14299,1872
14303,1883
14307,1894
14311,1886
14315,1887
14319,1884
14323,1872
14327,1875
14331,1877
14335,1895
14339,1891
14343,1890
14347,1877
14351,1888
14355,1889
14359,1884
14363,1882
14367,1884
14371,1891
14375,1897
14379,1891
14383,1889
14387,1904
14391,1903
14395,1903
14399,1899
14403,1897
14407,1899
14411,1903
14415,1902
14419,1905
14423,1917
14427,1915
14431,1910
14435,1910
14439,1920
14443,1916
14447,1904
14451,1920
14455,1921
14459,1923
14463,1914
14467,1915
14471,1926
14475,1929
14479,1934
14483,1926
14487,1932
14491,1937
14495,1934
14499,1919
14503,1936
14507,1951
14511,1942
14515,1952
14519,1968
14523,1992
14527,1988
14531,1995
14535,2010
14539,2030
14543,2025
14547,2007
14551,1997
14555,1975
14559,1967
14563,1934
14567,1927
14571,1941
14575,1954
14579,1959
14583,1949
14587,1943
14591,1946
14595,1947
14599,1949
14603,1941
14607,1939
14611,1950
14615,1950
14619,1952
14623,1951
14627,1947
14631,1936
14635,1910
14639,1857
14643,1801
14647,1865
14651,2139
14655,2571
14659,3139
14663,3646
14667,3465
14671,2970
14675,2441
14679,2042
14683,1909
14687,1905
14691,1939
14695,1961
14699,1957
14703,1966
14707,1949
14711,1917
14715,1904
14719,1909
14723,1920
14727,1947
14731,1910
14735,1919
14739,1928
14743,1929
14747,1939
14751,1937
14755,1951
14759,1962
14763,1939
14767,1957
14771,1968
14775,1969
14779,1967
14783,1969
14787,1983
14791,1986
14795,1982
14799,1968
14803,1989
14807,2000
14811,2006
14815,2010
14819,2014
14823,2032
14827,2035
14831,2032
14835,2043
14839,2062
14843,2061
14847,2064
14851,2076
14855,2096
14859,2099
14863,2102
14867,2117
14871,2147
14875,2155
14879,2160
14883,2163
14887,2179
14891,2192
14895,2192
14899,2197
14903,2207
14907,2223
14911,2217
14915,2213
14919,2223
14923,2220
14927,2206
14931,2192
14935,2173
14939,2154
14943,2120
14947,2069
14951,2043
14955,2006
14959,1973
14963,1938
14967,1914
14971,1888
14975,1871
14979,1850
14983,1840
14987,1839
14991,1840
14995,1826
14999,1826
15003,1835
15007,1839
15011,1841
15015,1837
15019,1838
15023,1840
15027,1842
15031,1840
15035,1840
15039,1845
15043,1851
15047,1856
15051,1863
15055,1866
15059,1867
15063,1869
15067,1869
15071,1876
15075,1876
15079,1873
15083,1867
15087,1881
15091,1885
15095,1874
15099,1888
15103,1890
15107,1891
15111,1894
15115,1883
15119,1877
15123,1878
15127,1885
15131,1872
15135,1877
15139,1888
15143,1887
15147,1879
15151,1883
15155,1877
15159,1886
15163,1871
15167,1876
15171,1886
15175,1881
15179,1872
15183,1865
15187,1878
15191,1888
15195,1884
15199,1884
15203,1889
15207,1891
15211,1887
15215,1891
15219,1894
15223,1905
15227,1903
15231,1901
15235,1897
15239,1902
15243,1895
15247,1899
15251,1904
15255,1905
15259,1903
15263,1904
15267,1900
15271,1911
15275,1919
15279,1908
15283,1907
15287,1905
15291,1906
15295,1907
15299,1916
15303,1921
15307,1915
15311,1911
15315,1913
15319,1918
15323,1923
15327,1931
15331,1920
15335,1923
15339,1926
15343,1941
15347,1950
15351,1962
15355,1982
15359,1989
15363,1987
15367,2000
15371,2003
15375,1991
15379,1968
15383,1953
15387,1949
15391,1939
15395,1918
15399,1908
15403,1918
15407,1921
15411,1925
15415,1928
15419,1928
15423,1934
15427,1922
15431,1915
15435,1926
15439,1933
15443,1936
15447,1926
15451,1932
15455,1930
15459,1935
15463,1907
15467,1843
15471,1767
15475,1797
15479,2029
15483,2467
15487,3049
15491,3767
15495,3916
15499,3373
15503,2778
15507,2254
15511,1968
15515,1896
15519,1911
15523,1936
15527,1939
15531,1918
15535,1899
15539,1891
15543,1875
15547,1867
15551,1873
15555,1878
15559,1879
15563,1881
15567,1882
15571,1897
15575,1897
15579,1889
15583,1886
15587,1894
15591,1899
15595,1903
15599,1911
15603,1922
15607,1918
15611,1909
15615,1923
15619,1936
15623,1936
15627,1936
15631,1923
15635,1982
15639,1968
15643,1975
15647,1974
15651,1984
15655,1995
15659,1997
15663,2018
15667,2006
15671,1966
15675,2032
15679,2032
15683,2038
15687,2061
15691,2068
15695,2082
15699,2087
15703,2112
15707,2127
15711,2144
15715,2147
15719,2171
15723,2177
15727,2179
15731,2179
15735,2192
15739,2210
15743,2219
15747,2221
15751,2223
15755,2223
15759,2212
15763,2191
15767,2174
15771,2142
15775,2112
15779,2064
15783,2021
15787,1987
15791,1946
15795,1918
15799,1889
15803,1869
15807,1857
15811,1840
15815,1830
15819,1839
15823,1836
15827,1826
15831,1819
15835,1813
15839,1822
15843,1825
15847,1820
15851,1825
15855,1840
15859,1838
15863,1821
15867,1835
15871,1834
15875,1840
15879,1837
15883,1837
15887,1841
15891,1842
15895,1840
15899,1839
15903,1849
15907,1859
15911,1850
15915,1854
15919,1855
15923,1870
15927,1860
15931,1863
15935,1867
15939,1871
15943,1869
15947,1849
15951,1863
15955,1872
15959,1873
15963,1851
15967,1862
15971,1870
15975,1869
15979,1859
15983,1872
15987,1876
15991,1872
15995,1869
15999,1868
16003,1875
16007,1879
16011,1872
16015,1872
16019,1872
16023,1879
16027,1879
16031,1878
16035,1875
16039,1878
16043,1867
16047,1871
16051,1872
16055,1883
16059,1879
16063,1875
16067,1870
16071,1881
16075,1885
16079,1880
16083,1889
16087,1890
16091,1893
16095,1885
16099,1886
16103,1894
16107,1886
16111,1877
16115,1887
16119,1901
16123,1895
16127,1898
16131,1892
16135,1897
16139,1906
16143,1903
16147,1902
16151,1904
16155,1906
16159,1904
16163,1903
16167,1904
16171,1904
16175,1909
16179,1907
16183,1918
16187,1919
16191,1925
16195,1915
16199,1915
16203,1927
16207,1929
16211,1919
16215,1917
16219,1931
16223,1934
16227,1936
16231,1930
16235,1932
16239,1930
16243,1935
16247,1925
16251,1931
16255,1939
16259,1936
16263,1927
16267,1930
16271,1936
16275,1942
16279,1933
16283,1931
16287,1937
16291,1945
16295,1939
16299,1934
16303,1941
16307,1946
16311,1947
16315,1936
16319,1951
16323,1953
16327,1946
16331,1945
16335,1951
16339,1961
16343,1959
16347,1951
16351,1950
16355,1963
16359,1982
16363,2001
16367,2019
16371,2023
16375,2026
16379,2019
16383,2026
16387,2027
16391,2027
16395,2007
16399,1993
16403,1983
16407,1972
16411,1962
16415,1955
16419,1965
16423,1969
16427,1959
16431,1957
16435,1962
16439,1967
16443,1963
16447,1952
16451,1967
16455,1969
16459,1963
16463,1958
16467,1963
16471,1967
16475,1917
16479,1825
16483,1741
16487,1818
16491,2170
16495,2750
16499,3546
16503,4095
16507,4095
16511,4048
16515,3171
16519,2493
16523,2100
16527,1967
16531,1957
16535,1967
16539,1947
16543,1919
16547,1898
16551,1889
16555,1877
16559,1867
16563,1862
16567,1858
16571,1861
16575,1877
16579,1860
16583,1855
16587,1874
16591,1884
16595,1879
16599,1879
16603,1884
16607,1890
16611,1894
16615,1891
16619,1904
16623,1923
16627,1906
16631,1904
16635,1915
16639,1921
16643,1926
16647,1919
16651,1935
16655,1933
16659,1942
16663,1951
16667,1949
16671,1963
16675,1967
16679,1969
16683,1972
16687,1982
16691,1995
16695,2001
16699,2001
16703,2017
16707,2032
16711,2043
16715,2063
16719,2089
16723,2109
16727,2118
16731,2127
16735,2146
16739,2165
16743,2181
16747,2183
16751,2206
16755,2219
16759,2231
16763,2230
16767,2235
16771,2238
16775,2227
16779,2205
16783,2175
16787,2147
16791,2114
16795,2063
16799,2024
16803,1991
16807,1959
16811,1919
16815,1878
16819,1872
16823,1854
16827,1841
16831,1835
16835,1830
16839,1835
16843,1828
16847,1822
16851,1824
16855,1835
16859,1839
16863,1830
16867,1827
16871,1836
16875,1831
16879,1823
16883,1830
16887,1842
16891,1840
16895,1832
16899,1838
16903,1845
16907,1855
16911,1851
16915,1850
16919,1854
16923,1859
16927,1847
16931,1854
16935,1861
16939,1867
16943,1860
16947,1855
16951,1859
16955,1863
16959,1866
16963,1861
16967,1863
16971,1876
16975,1873
16979,1867
16983,1872
16987,1870
16991,1875
16995,1871
16999,1872
17003,1872
17007,1875
17011,1876
17015,1870
17019,1874
17023,1887
17027,1887
17031,1879
17035,1886
17039,1893
17043,1882
17047,1872
17051,1872
17055,1882
17059,1886
17063,1888
17067,1885
17071,1886
17075,1886
17079,1887
17083,1894
17087,1907
17091,1910
17095,1904
17099,1899
17103,1903
17107,1904
17111,1906
17115,1911
17119,1911
17123,1909
17127,1908
17131,1909
17135,1909
17139,1911
17143,1910
17147,1910
17151,1910
17155,1920
17159,1927
17163,1914
17167,1921
17171,1931
17175,1927
17179,1920
17183,1923
17187,1935
17191,1935
17195,1927
17199,1935
17203,1936
17207,1936
17211,1933
17215,1931
17219,1936
17223,1942
17227,1946
17231,1936
17235,1941
17239,1939
17243,1941
17247,1939
17251,1935
17255,1949
17259,1937
17263,1933
17267,1936
17271,1942
17275,1950
17279,1943
17283,1946
17287,1950
17291,1941
17295,1950
17299,1957
17303,1958
17307,1969
17311,1958
17315,1949
17319,1956
17323,1964
17327,1961
17331,1962
17335,1963
17339,1962
17343,1963
17347,1958
17351,1966
17355,1967
17359,1968
17363,1958
17367,1966
17371,1970
17375,1975
17379,1971
17383,1975
17387,1979
17391,1977
17395,1969
17399,1971
17403,1968
17407,1979
17411,1968
17415,1970
17419,1971
17423,1977
17427,1979
17431,1977
17435,1979
17439,1983
17443,1985
17447,1996
17451,2026
17455,2025
17459,2047
17463,2038
17467,2039
17471,2046
17475,2042
17479,2026
17483,2015
17487,2007
17491,1968
17495,1985
17499,1967
17503,1977
17507,1978
17511,1968
17515,1971
17519,1979
17523,1981
17527,1969
17531,1968
17535,1971
17539,1991
17543,1972
17547,1968
17551,1968
17555,1965
17559,1968
17563,1934
17567,1846
17571,1752
17575,1755
17579,2022
17583,2585
17587,3378
17591,4095
17595,4095
17599,4095
17603,3630
17607,2774
17611,2224
17615,1988
17619,1952
17623,1967
17627,1951
17631,1933
17635,1903
17639,1875
17643,1858
17647,1843
17651,1847
17655,1856
17659,1855
17663,1847
17667,1849
17671,1858
17675,1857
17679,1863
17683,1873
17687,1873
17691,1881
17695,1872
17699,1872
17703,1885
17707,1889
17711,1891
17715,1891
17719,1901
17723,1911
17727,1904
17731,1906
17735,1920
17739,1920
17743,1931
17747,1930
17751,1936
17755,1945
17759,1948
17763,1957
17767,1969
17771,1985
17775,1985
17779,1986
17783,2000
17787,2013
17791,2019
17795,2032
17799,2054
17803,2073
17807,2094
17811,2107
17815,2114
17819,2142
17823,2159
17827,2160
17831,2166
17835,2187
17839,2197
17843,2201
17847,2204
17851,2215
17855,2236
17859,2240
17863,2228
17867,2221
17871,2199
17875,2174
17879,2128
17883,2094
17887,2063
17891,2019
17895,1968
17899,1932
17903,1907
17907,1890
17911,1867
17915,1849
17919,1849
17923,1834
17927,1830
17931,1821
17935,1827
17939,1840
17943,1830
17947,1821
17951,1826
17955,1834
17959,1830
17963,1821
17967,1830
17971,1837
17975,1840
17979,1833
17983,1838
17987,1842
17991,1843
17995,1845
17999,1847
18003,1847
18007,1847
18011,1851
18015,1840
18019,1843
18023,1858
18027,1856
18031,1854
18035,1853
18039,1865
18043,1859
18047,1858
18051,1862
18055,1869
18059,1867
18063,1868
18067,1869
18071,1871
18075,1867
18079,1856
18083,1861
18087,1866
18091,1872
18095,1865
18099,1867
18103,1875
18107,1879
18111,1873
18115,1872
18119,1872
18123,1874
18127,1872
18131,1872
18135,1877
18139,1887
18143,1883
18147,1877
18151,1886
18155,1897
18159,1898
18163,1888
18167,1891
18171,1893
18175,1899
18179,1894
18183,1898
18187,1901
18191,1904
18195,1900
18199,1901
18203,1904
18207,1903
18211,1904
18215,1893
18219,1901
18223,1906
18227,1904
18231,1904
18235,1906
18239,1919
18243,1911
18247,1914
18251,1919
18255,1925
18259,1925
18263,1916
18267,1926
18271,1933
18275,1930
18279,1927
18283,1930
18287,1934
18291,1933
18295,1921
18299,1930
18303,1935
18307,1935
18311,1935
18315,1934
18319,1939
18323,1941
18327,1936
18331,1937
18335,1943
18339,1949
18343,1948
18347,1938
18351,1946
18355,1950
18359,1947
18363,1962
18367,1991
18371,1974
18375,1946
18379,1945
18383,1949
18387,1948
18391,1967
18395,1959
18399,1953
18403,1938
18407,1954
18411,1952
18415,1951
18419,1959
18423,1965
18427,1957
18431,1955
18435,1963
18439,1965
18443,1966
18447,1957
18451,1968
18455,1981
18459,1973
18463,1968
18467,1965
18471,1968
18475,1968
18479,1962
18483,1975
18487,1980
18491,1974
18495,1963
18499,1965
18503,1974
18507,1983
18511,1983
18515,1981
18519,1986
18523,1990
18527,2000
18531,2019
18535,2032
18539,2053
18543,2038
18547,2039
18551,2056
18555,2055
18559,2035
18563,2022
18567,2012
18571,2000
18575,1987
18579,1971
18583,1973
18587,1979
18591,1978
18595,1979
18599,1983
18603,1979
18607,1985
18611,1978
18615,1968
18619,1978
18623,1972
18627,1968
18631,1969
18635,1986
18639,1985
18643,1958
18647,1866
18651,1775
18655,1774
18659,2018
18663,2528
18667,3271
18671,4095
18675,4095
18679,4095
18683,3471
18687,2675
18691,2177
18695,1985
18699,1959
18703,1975
18707,1972
18711,1943
18715,1918
18719,1901
18723,1886
18727,1872
18731,1863
18735,1873
18739,1877
18743,1873
18747,1866
18751,1870
18755,1872
18759,1872
18763,1871
18767,1880
18771,1890
18775,1895
18779,1898
18783,1903
18787,1907
18791,1903
18795,1907
18799,1914
18803,1922
18807,1927
18811,1927
18815,1931
18819,1937
18823,1947
18827,1953
18831,1959
18835,1970
18839,1982
18843,1981
18847,1986
18851,2000
18855,2010
18859,2005
18863,2011
18867,2043
18871,2056
18875,2073
18879,2074
18883,2085
18887,2106
18891,2115
18895,2127
18899,2138
18903,2162
18907,2163
18911,2173
18915,2180
18919,2207
18923,2217
18927,2215
18931,2214
18935,2224
18939,2233
18943,2222
18947,2195
18951,2185
18955,2160
18959,2128
18963,2087
18967,2039
18971,2000
18975,1966
18979,1928
18983,1899
18987,1883
18991,1865
18995,1842
18999,1840
19003,1834
19007,1830
19011,1820
19015,1812
19019,1819
19023,1818
19027,1822
19031,1808
19035,1814
19039,1827
19043,1829
19047,1837
19051,1835
19055,1842
19059,1839
19063,1840
19067,1843
19071,1842
19075,1842
19079,1838
19083,1841
19087,1851
19091,1853
19095,1849
19099,1854
19103,1856
19107,1853
19111,1844
19115,1841
19119,1856
19123,1863
19127,1856
19131,1853
19135,1856
19139,1863
19143,1857
19147,1854
19151,1870
19155,1872
19159,1872
19163,1864
19167,1863
19171,1867
19175,1865
19179,1859
19183,1865
19187,1872
19191,1878
19195,1869
19199,1867
19203,1872
19207,1875
19211,1876
19215,1873
19219,1872
19223,1883
19227,1874
19231,1884
19235,1885
19239,1894
19243,1880
19247,1880
19251,1891
19255,1902
19259,1893
19263,1886
19267,1851
19271,1903
19275,1904
19279,1893
19283,1901
19287,1911
19291,1913
19295,1919
19299,1907
19303,1911
19307,1916
19311,1910
19315,1899
19319,1911
19323,1926
19327,1919
19331,1921
19335,1925
19339,1923
19343,1923
19347,1922
19351,1927
19355,1935
19359,1931
19363,1904
19367,1937
19371,1942
19375,1949
19379,1936
19383,1936
19387,1939
19391,1944
19395,1948
19399,1946
19403,1954
19407,1947
19411,1952
19415,1946
19419,1952
19423,1963
19427,1962
19431,1950
19435,1957
19439,1968
19443,1955
19447,1945
19451,1957
19455,1968
19459,1975
19463,1973
19467,1973
19471,1979
19475,1968
19479,1969
19483,1971
19487,1977
19491,1981
19495,1969
19499,1971
19503,1984
19507,1998
19511,2015
19515,2029
19519,2042
19523,2054
19527,2046
19531,2035
19535,2035
19539,2026
19543,2017
19547,1999
19551,1993
19555,1985
19559,1982
19563,1971
19567,1984
19571,1983
19575,1975
19579,1971
19583,1980
19587,1985
19591,1968
19595,1976
19599,1975
19603,1981
19607,1982
19611,1979
19615,1982
19619,1978
19623,1938
19627,1857
19631,1818
19635,1922
19639,2227
19643,2690
19647,3301
19651,3906
19655,3683
19659,3091
19663,2511
19667,2097
19671,1966
19675,1946
19679,1968
19683,1988
19687,1985
19691,1971
19695,1946
19699,1936
19703,1931
19707,1933
19711,1929
19715,1921
19719,1933
19723,1948
19727,1936
19731,1936
19735,1948
19739,1942
19743,1949
19747,1951
19751,1963
19755,1973
19759,1968
19763,1968
19767,1977
19771,1984
19775,1985
19779,1978
19783,1987
19787,1993
19791,2009
19795,2011
19799,2007
19803,2013
19807,2032
19811,2034
19815,2033
19819,2038
19823,2055
19827,2058
19831,2063
19835,2076
19839,2086
19843,2105
19847,2112
19851,2125
19855,2134
19859,2143
19863,2142
19867,2160
19871,2173
19875,2198
19879,2198
19883,2216
19887,2224
19891,2224
19895,2226
19899,2222
19903,2230
19907,2233
19911,2233
19915,2226
19919,2226
19923,2217
19927,2194
19931,2156
19935,2134
19939,2099
19943,2058
19947,2013
19951,1977
19955,1959
19959,1932
19963,1907
19967,1894
19971,1895
19975,1874
19979,1860
19983,1850
19987,1853
19991,1853
19995,1841
