Timestamp,ECG Data
4,1867
7,1869
11,1856
15,1853
19,1863
23,1861
27,1862
31,1856
35,1872
39,1872
43,1870
47,1866
51,1882
55,1885
59,1879
63,1877
67,1887
71,1894
75,1893
79,1882
83,1882
87,1891
91,1890
95,1885
99,1881
103,1895
107,1903
111,1889
115,1883
119,1903
123,1904
127,1895
131,1885
135,1898
139,1906
143,1906
147,1893
151,1904
155,1907
159,1904
163,1903
167,1906
171,1915
175,1909
179,1904
183,1907
187,1917
191,1917
195,1904
199,1904
203,1917
207,1930
211,1906
215,1903
219,1917
223,1920
227,1914
231,1915
235,1923
239,1934
243,1927
247,1916
251,1924
255,1936
259,1935
263,1931
267,1936
271,1937
275,1940
279,1927
283,1931
287,1934
291,1943
295,1935
299,1937
303,1945
307,1941
311,1936
315,1936
319,1946
323,1949
327,1946
331,1938
335,1948
339,1952
343,1943
347,1938
351,1943
355,1958
359,1952
363,1947
367,1957
371,1968
375,1966
379,1951
383,1953
387,1965
391,1966
395,1960
399,1957
403,1968
407,1969
411,1967
415,1957
419,1965
423,1983
427,1974
431,1967
435,1969
439,1981
443,1974
447,1968
451,1975
455,1989
459,1982
463,1971
467,1973
471,1983
475,1982
479,1971
483,1980
487,1990
491,1990
495,1983
499,1984
503,1985
507,1988
511,1978
515,1979
519,1984
523,1990
527,1981
531,1979
535,1986
539,1990
543,1989
547,1987
551,1991
555,1997
559,1983
563,1984
567,1996
571,2023
575,2031
579,2043
583,2057
587,2067
591,2080
595,2060
599,2039
603,2032
607,2033
611,2011
615,1979
619,1978
623,1978
627,1968
631,1965
635,1986
639,1987
643,1983
647,1968
651,1977
655,1990
659,1983
663,1971
667,1979
671,2000
675,1999
679,1965
683,1890
687,1785
691,1723
695,1862
699,2337
703,3053
707,4095
711,4095
715,4095
719,4054
723,3120
727,2437
731,2084
735,1968
739,1963
743,1959
747,1931
751,1905
755,1894
759,1875
763,1853
767,1845
771,1850
775,1842
779,1843
783,1855
787,1862
791,1855
795,1846
799,1847
803,1859
807,1870
811,1865
815,1870
819,1881
823,1888
827,1882
831,1881
835,1888
839,1897
843,1892
847,1891
851,1905
855,1925
859,1920
863,1919
867,1925
871,1943
875,1954
879,1957
883,1959
887,1973
891,1979
895,1984
899,1991
903,2013
907,2031
911,2033
915,2038
919,2064
923,2091
927,2096
931,2109
935,2128
939,2148
943,2160
947,2160
951,2177
955,2192
959,2201
963,2193
967,2210
971,2231
975,2226
979,2201
983,2191
987,2168
991,2138
995,2086
999,2042
1003,2003
1007,1966
1011,1921
1015,1882
1019,1860
1023,1850
1027,1825
1031,1808
1035,1806
1039,1808
1043,1797
1047,1789
1051,1798
1055,1807
1059,1806
1063,1799
1067,1808
1071,1817
1075,1811
1079,1808
1083,1813
1087,1822
1091,1833
1095,1817
1099,1818
1103,1825
1107,1826
1111,1820
1115,1813
1119,1823
1123,1840
1127,1835
1131,1822
1135,1824
1139,1840
1143,1839
1147,1823
1151,1840
1155,1844
1159,1841
1163,1837
1167,1839
1171,1841
1175,1843
1179,1836
1183,1836
1187,1848
1191,1846
1195,1840
1199,1835
1203,1842
1207,1851
1211,1840
1215,1841
1219,1850
1223,1851
1227,1851
1231,1841
1235,1851
1239,1867
1243,1875
1247,1856
1251,1859
1255,1858
1259,1857
1263,1852
1267,1857
1271,1871
1275,1876
1279,1863
1283,1869
1287,1873
1291,1875
1295,1872
1299,1871
1303,1878
1307,1889
1311,1883
1315,1875
1319,1875
1323,1881
1327,1879
1331,1883
1335,1887
1339,1882
1343,1888
1347,1878
1351,1895
1355,1903
1359,1902
1363,1882
1367,1889
1371,1904
1375,1900
1379,1890
1383,1899
1387,1914
1391,1915
1395,1906
1399,1910
1403,1911
1407,1919
1411,1909
1415,1915
1419,1916
1423,1922
1427,1923
1431,1911
1435,1920
1439,1926
1443,1935
1447,1925
1451,1931
1455,1937
1459,1938
1463,1925
1467,1927
1471,1948
1475,1945
1479,1936
1483,1933
1487,1938
1491,1950
1495,1942
1499,1935
1503,1941
1507,1941
1511,1945
1515,1936
1519,1943
1523,1952
1527,1937
1531,1936
1535,1949
1539,1963
1543,1965
1547,1938
1551,1943
1555,1947
1559,1952
1563,1951
1567,1958
1571,1959
1575,1957
1579,1954
1583,1958
1587,1969
1591,1968
1595,1962
1599,1964
1603,1982
1607,1998
1611,2015
1615,2014
1619,2036
1623,2055
1627,2044
1631,2032
1635,2017
1639,2019
1643,1998
1647,1984
1651,1971
1655,1971
1659,1968
1663,1967
1667,1963
1671,1974
1675,1967
1679,1963
1683,1958
1687,1968
1691,1979
1695,1968
1699,1966
1703,1975
1707,1979
1711,1969
1715,1965
1719,1936
1723,1856
1727,1754
1731,1735
1735,1975
1739,2481
1743,3163
1747,4095
1751,4095
1755,3957
1759,3150
1763,2489
1767,2117
1771,2001
1775,1984
1779,1979
1783,1963
1787,1937
1791,1927
1795,1903
1799,1882
1803,1885
1807,1886
1811,1882
1815,1874
1819,1878
1823,1894
1827,1886
1831,1882
1835,1885
1839,1900
1843,1901
1847,1901
1851,1904
1855,1918
1859,1919
1863,1926
1867,1925
1871,1940
1875,1946
1879,1936
1883,1938
1887,1960
1891,1972
1895,1968
1899,1960
1903,1979
1907,1995
1911,1987
1915,1996
1919,2011
1923,2025
1927,2032
1931,2032
1935,2042
1939,2063
1943,2070
1947,2076
1951,2096
1955,2161
1959,2141
1963,2125
1967,2151
1971,2175
1975,2192
1979,2190
1983,2236
1987,2218
1991,2206
1995,2235
1999,2240
2003,2259
2007,2257
2011,2253
2015,2237
2019,2223
2023,2202
2027,2171
2031,2119
2035,2079
2039,2043
2043,2011
2047,1963
2051,1936
2055,1907
2059,1904
2063,1871
2067,1858
2071,1858
2075,1854
2079,1842
2083,1833
2087,1834
2091,1847
2095,1834
2099,1826
2103,1841
2107,1840
2111,1830
2115,1824
2119,1840
2123,1844
2127,1850
2131,1842
2135,1852
2139,1853
2143,1858
2147,1859
2151,1860
2155,1874
2159,1872
2163,1869
2167,1865
2171,1872
2175,1873
2179,1871
2183,1870
2187,1870
2191,1879
2195,1872
2199,1872
2203,1880
2207,1890
2211,1877
2215,1871
2219,1871
2223,1872
2227,1871
2231,1866
2235,1874
2239,1881
2243,1878
2247,1872
2251,1872
2255,1885
2259,1887
2263,1881
2267,1883
2271,1893
2275,1895
2279,1879
2283,1875
2287,1883
2291,1895
2295,1899
2299,1889
2303,1889
2307,1891
2311,1887
2315,1887
2319,1901
2323,1911
2327,1904
2331,1889
2335,1899
2339,1911
2343,1910
2347,1903
2351,1901
2355,1906
2359,1901
2363,1904
2367,1910
2371,1926
2375,1932
2379,1915
2383,1907
2387,1921
2391,1927
2395,1917
2399,1914
2403,1917
2407,1922
2411,1923
2415,1920
2419,1923
2423,1936
2427,1933
2431,1927
2435,1935
2439,1940
2443,1943
2447,1931
2451,1942
2455,1947
2459,1948
2463,1936
2467,1937
2471,1939
2475,1942
2479,1936
2483,1936
2487,1942
2491,1955
2495,1950
2499,1945
2503,1954
2507,1956
2511,1949
2515,1940
2519,1953
2523,1955
2527,1950
2531,1945
2535,1951
2539,1966
2543,1966
2547,1951
2551,1950
2555,1965
2559,1959
2563,1955
2567,1959
2571,1973
2575,1968
2579,1955
2583,1954
2587,1965
2591,1985
2595,1984
2599,2003
2603,2032
2607,2053
2611,2047
2615,2035
2619,2034
2623,2027
2627,2017
2631,2000
2635,1998
2639,1983
2643,1972
2647,1968
2651,1968
2655,1979
2659,1979
2663,1968
2667,1968
2671,1977
2675,1975
2679,1970
2683,1965
2687,1977
2691,1974
2695,1969
2699,1968
2703,1963
2707,1911
2711,1813
2715,1776
2719,1935
2723,2320
2727,2864
2731,3561
2735,4095
2739,3807
2743,3138
2747,2529
2751,2133
2755,1986
2759,1972
2763,1978
2767,1971
2771,1970
2775,1943
2779,1927
2783,1911
2787,1909
2791,1905
2795,1903
2799,1892
2803,1897
2807,1904
2811,1904
2815,1903
2819,1907
2823,1922
2827,1922
2831,1919
2835,1927
2839,1936
2843,1936
2847,1936
2851,1936
2855,1949
2859,1959
2863,1951
2867,1950
2871,1965
2875,1971
2879,1967
2883,1969
2887,1984
2891,2000
2895,1990
2899,1994
2903,2005
2907,2019
2911,2031
2915,2032
2919,2047
2923,2064
2927,2066
2931,2067
2935,2090
2939,2106
2943,2124
2947,2128
2951,2148
2955,2167
2959,2175
2963,2179
2967,2180
2971,2201
2975,2223
2979,2207
2983,2214
2987,2233
2991,2244
2995,2240
2999,2235
3003,2226
3007,2198
3011,2160
3015,2112
3019,2071
3023,2039
3027,2000
3031,1907
3035,1909
3039,1902
3043,1919
3047,1855
3051,1846
3055,1839
3059,1830
3063,1812
3067,1827
3071,1825
3075,1819
3079,1815
3083,1811
3087,1814
3091,1833
3095,1818
3099,1818
3103,1823
3107,1842
3111,1829
3115,1827
3119,1840
3123,1852
3127,1851
3131,1837
3135,1843
3139,1855
3143,1856
3147,1846
3151,1846
3155,1858
3159,1859
3163,1856
3167,1855
3171,1871
3175,1874
3179,1868
3183,1872
3187,1872
3191,1877
3195,1872
3199,1871
3203,1875
3207,1881
3211,1885
3215,1871
3219,1867
3223,1881
3227,1879
3231,1870
3235,1873
3239,1883
3243,1879
3247,1867
3251,1872
3255,1885
3259,1897
3263,1889
3267,1883
3271,1889
3275,1883
3279,1878
3283,1873
3287,1881
3291,1893
3295,1890
3299,1887
3303,1895
3307,1906
3311,1902
3315,1901
3319,1903
3323,1904
3327,1907
3331,1908
3335,1907
3339,1919
3343,1909
3347,1907
3351,1909
3355,1921
3359,1928
3363,1909
3367,1911
3371,1926
3375,1923
3379,1914
3383,1915
3387,1917
3391,1932
3395,1925
3399,1920
3403,1926
3407,1933
3411,1927
3415,1925
3419,1918
3423,1930
3427,1937
3431,1933
3435,1928
3439,1936
3443,1948
3447,1931
3451,1936
3455,1943
3459,1950
3463,1949
3467,1936
3471,1949
3475,1946
3479,1946
3483,1947
3487,1947
3491,1962
3495,1955
3499,1946
3503,1943
3507,1956
3511,1954
3515,1943
3519,1942
3523,1959
3527,1954
3531,1958
3535,1958
3539,1967
3543,1961
3547,1958
3551,1962
3555,1974
3559,1969
3563,1967
3567,1951
3571,1970
3575,1974
3579,1967
3583,1961
3587,1968
3591,1974
3595,1973
3599,1962
3603,1962
3607,1968
3611,1963
3615,1958
3619,1968
3623,1979
3627,1978
3631,1969
3635,1979
3639,2001
3643,2019
3647,2031
3651,2032
3655,2045
3659,2055
3663,2032
3667,2016
3671,2022
3675,2014
3679,1998
3683,1968
3687,1963
3691,1967
3695,1967
3699,1963
3703,1967
3707,1981
3711,1979
3715,1968
3719,1975
3723,1982
3727,1979
3731,1968
3735,1977
3739,1984
3743,1990
3747,1957
3751,1876
3755,1785
3759,1750
3763,1937
3767,2416
3771,3099
3775,4095
3779,4095
3783,4095
3787,3577
3791,2826
3795,2304
3799,2037
3803,1981
3807,1981
3811,1962
3815,1935
3819,1907
3823,1899
3827,1894
3831,1872
3835,1872
3839,1875
3843,1876
3847,1870
3851,1872
3855,1875
3859,1879
3863,1882
3867,1881
3871,1898
3875,1899
3879,1897
3883,1902
3887,1910
3891,1929
3895,1917
3899,1923
3903,1904
3907,1925
3911,1926
3915,1921
3919,1921
3923,1942
3927,1942
3931,1951
3935,1953
3939,1968
3943,1970
3947,1971
3951,1984
3955,1995
3959,2000
3963,2000
3967,2004
3971,2014
3975,2037
3979,2034
3983,2058
3987,2080
3991,2101
3995,2115
3999,2127
4003,2135
4007,2160
4011,2170
4015,2177
4019,2190
4023,2219
4027,2211
4031,2202
4035,2208
4039,2226
4043,2231
4047,2224
4051,2198
4055,2177
4059,2150
4063,2100
4067,2062
4071,2029
4075,1984
4079,1947
4083,1909
4087,1893
4091,1889
4095,1864
4099,1845
4103,1839
4107,1839
4111,1826
4115,1808
4119,1810
4123,1823
4127,1834
4131,1824
4135,1829
4139,1840
4143,1843
4147,1839
4151,1837
4155,1842
4159,1849
4163,1839
4167,1839
4171,1851
4175,1851
4179,1853
4183,1843
4187,1846
4191,1855
4195,1854
4199,1841
4203,1843
4207,1859
4211,1858
4215,1858
4219,1859
4223,1867
4227,1869
4231,1859
4235,1858
4239,1871
4243,1872
4247,1856
4251,1855
4255,1869
4259,1870
4263,1866
4267,1859
4271,1870
4275,1869
4279,1866
4283,1862
4287,1872
4291,1882
4295,1874
4299,1872
4303,1872
4307,1875
4311,1884
4315,1875
4319,1876
4323,1890
4327,1900
4331,1883
4335,1881
4339,1891
4343,1889
4347,1879
4351,1874
4355,1888
4359,1888
4363,1886
4367,1887
4371,1899
4375,1905
4379,1904
4383,1894
4387,1904
4391,1902
4395,1906
4399,1903
4403,1904
4407,1915
4411,1914
4415,1904
4419,1907
4423,1919
4427,1925
4431,1915
4435,1918
4439,1925
4443,1927
4447,1918
4451,1914
4455,1925
4459,1929
4463,1918
4467,1925
4471,1930
4475,1922
4479,1918
4483,1922
4487,1925
4491,1936
4495,1936
4499,1921
4503,1925
4507,1938
4511,1939
4515,1935
4519,1938
4523,1950
4527,1939
4531,1937
4535,1934
4539,1939
4543,1949
4547,1943
4551,1936
4555,1951
4559,1952
4563,1953
4567,1942
4571,1954
4575,1955
4579,1952
4583,1941
4587,1950
4591,1959
4595,1957
4599,1954
4603,1950
4607,1958
4611,1966
4615,1955
4619,1959
4623,1968
4627,1966
4631,1956
4635,1959
4639,1966
4643,1967
4647,1962
4651,1963
4655,1965
4659,1975
4663,1967
4667,1962
4671,1970
4675,1968
4679,1972
4683,1968
4687,1974
4691,1979
4695,1971
4699,1972
4703,1995
4707,2029
4711,2033
4715,2032
4719,2039
4723,2061
4727,2065
4731,2058
4735,2038
4739,2023
4743,2023
4747,2000
4751,1984
4755,1975
4759,1981
4763,1968
4767,1968
4771,1971
4775,1983
4779,1970
4783,1975
4787,1974
4791,1971
4795,1970
4799,1969
4803,1974
4807,1982
4811,1979
4815,1948
4819,1839
4823,1759
4827,1744
4831,1991
4835,2566
4839,3334
4843,4095
4847,4095
4851,4095
4855,3536
4859,2752
4863,2245
4867,2039
4871,1924
4875,1969
4879,1965
4883,1929
4887,1915
4891,1902
4895,1871
4899,1853
4903,1853
4907,1857
4911,1863
4915,1856
4919,1863
4923,1873
4927,1872
4931,1872
4935,1872
4939,1876
4943,1886
4947,1879
4951,1885
4955,1894
4959,1906
4963,1903
4967,1899
4971,1910
4975,1921
4979,1925
4983,1916
4987,1927
4991,1937
4995,1943
4999,1938
5003,1946
5007,1963
5011,1964
5015,1959
5019,1969
5023,1989
5027,1999
5031,2002
5035,2019
5039,2027
5043,2044
5047,2061
5051,2067
5055,2085
5059,2111
5063,2113
5067,2115
5071,2134
5075,2160
5079,2170
5083,2168
5087,2180
5091,2199
5095,2210
5099,2206
5103,2219
5107,2229
5111,2224
5115,2206
5119,2195
5123,2175
5127,2142
5131,2095
5135,2057
5139,2022
5143,1990
5147,1943
5151,1904
5155,1893
5159,1865
5163,1845
5167,1824
5171,1824
5175,1823
5179,1814
5183,1809
5187,1814
5191,1827
5195,1817
5199,1814
5203,1824
5207,1829
5211,1829
5215,1829
5219,1835
5223,1847
5227,1851
5231,1840
5235,1841
5239,1856
5243,1857
5247,1850
5251,1840
5255,1855
5259,1870
5263,1861
5267,1854
5271,1858
5275,1863
5279,1865
5283,1856
5287,1869
5291,1872
5295,1869
5299,1869
5303,1865
5307,1872
5311,1856
5315,1847
5319,1851
5323,1869
5327,1870
5331,1861
5335,1859
5339,1872
5343,1872
5347,1872
5351,1872
5355,1872
5359,1883
5363,1873
5367,1870
5371,1871
5375,1874
5379,1872
5383,1872
5387,1872
5391,1876
5395,1872
5399,1867
5403,1872
5407,1885
5411,1874
5415,1877
5419,1877
5423,1895
5427,1899
5431,1883
5435,1873
5439,1890
5443,1898
5447,1885
5451,1888
5455,1903
5459,1910
5463,1905
5467,1889
5471,1904
5475,1911
5479,1907
5483,1903
5487,1903
5491,1904
5495,1903
5499,1902
5503,1903
5507,1915
5511,1909
5515,1904
5519,1916
5523,1921
5527,1927
5531,1918
5535,1913
5539,1926
5543,1925
5547,1920
5551,1920
5555,1933
5559,1936
5563,1934
5567,1927
5571,1932
5575,1948
5579,1950
5583,1941
5587,1931
5591,1942
5595,1938
5599,1931
5603,1936
5607,1943
5611,1944
5615,1936
5619,1935
5623,1951
5627,1953
5631,1941
5635,1936
5639,1945
5643,1950
5647,1943
5651,1941
5655,1952
5659,1956
5663,1951
5667,1948
5671,1950
5675,1961
5679,1959
5683,1948
5687,1959
5691,1968
5695,1968
5699,1959
5703,1959
5707,1965
5711,1963
5715,1958
5719,1965
5723,1975
5727,1975
5731,1977
5735,1968
5739,1984
5743,2003
5747,2045
5751,2027
5755,2044
5759,2054
5763,2040
5767,2042
5771,1987
5775,2001
5779,1995
5783,2000
5787,1995
5791,1987
5795,1970
5799,1952
5803,1962
5807,1968
5811,1981
5815,1969
5819,1966
5823,1975
5827,1979
5831,1957
5835,1958
5839,1974
5843,1977
5847,1975
5851,1964
5855,1935
5859,1851
5863,1744
5867,1742
5871,1999
5875,2539
5879,3259
5883,4095
5887,4095
5891,4095
5895,3358
5899,2630
5903,2192
5907,2020
5911,1968
5915,1963
5919,1955
5923,1946
5927,1920
5931,1892
5935,1884
5939,1872
5943,1858
5947,1867
5951,1871
5955,1875
5959,1879
5963,1877
5967,1872
5971,1875
5975,1888
5979,1891
5983,1883
5987,1887
5991,1903
5995,1903
5999,1901
6003,1903
6007,1916
6011,1920
6015,1921
6019,1923
6023,1936
6027,1939
6031,1941
6035,1950
6039,1964
6043,1968
6047,1968
6051,1971
6055,1985
6059,1994
6063,1993
6067,2005
6071,2023
6075,2036
6079,2045
6083,2055
6087,2071
6091,2095
6095,2100
6099,2102
6103,2118
6107,2145
6111,2161
6115,2161
6119,2178
6123,2195
6127,2207
6131,2200
6135,2210
6139,2224
6143,2228
6147,2224
6151,2221
6155,2223
6159,2198
6163,2162
6167,2123
6171,2096
6175,2064
6179,2015
6183,1975
6187,1938
6191,1921
6195,1895
6199,1863
6203,1850
6207,1841
6211,1834
6215,1823
6219,1820
6223,1827
6227,1829
6231,1821
6235,1825
6239,1828
6243,1835
6247,1824
6251,1827
6255,1840
6259,1845
6263,1834
6267,1840
6271,1853
6275,1853
6279,1840
6283,1839
6287,1841
6291,1856
6295,1857
6299,1843
6303,1849
6307,1862
6311,1856
6315,1840
6319,1846
6323,1861
6327,1866
6331,1851
6335,1847
6339,1851
6343,1857
6347,1847
6351,1845
6355,1860
6359,1866
6363,1861
6367,1850
6371,1857
6375,1866
6379,1869
6383,1866
6387,1872
6391,1876
6395,1872
6399,1872
6403,1872
6407,1872
6411,1872
6415,1867
6419,1872
6423,1885
6427,1882
6431,1882
6435,1879
6439,1877
6443,1881
6447,1873
6451,1872
6455,1878
6459,1893
6463,1881
6467,1875
6471,1888
6475,1899
6479,1898
6483,1894
6487,1901
6491,1909
6495,1907
6499,1895
6503,1899
6507,1917
6511,1910
6515,1911
6519,1911
6523,1911
6527,1917
6531,1906
6535,1909
6539,1927
6543,1936
6547,1926
6551,1919
6555,1909
6559,1921
6563,1919
6567,1911
6571,1918
6575,1933
6579,1925
6583,1909
6587,1908
6591,1917
6595,1921
6599,1913
6603,1910
6607,1929
6611,1929
6615,1914
6619,1922
6623,1927
6627,1930
6631,1922
6635,1929
6639,1935
6643,1936
6647,1936
6651,1917
6655,1931
6659,1952
6663,1970
6667,1925
6671,1935
6675,1940
6679,1929
6683,1947
6687,1935
6691,1945
6695,1942
6699,1936
6703,1941
6707,1929
6711,1961
6715,1950
6719,1955
6723,1961
6727,1957
6731,1957
6735,1981
6739,2006
6743,2016
6747,2020
6751,2021
6755,2033
6759,2046
6763,2034
6767,2009
6771,2001
6775,2000
6779,1983
6783,1953
6787,1952
6791,1968
6795,1963
6799,1953
6803,1951
6807,1966
6811,1954
6815,1952
6819,1953
6823,1959
6827,1966
6831,1962
6835,1966
6839,1973
6843,1968
6847,1933
6851,1846
6855,1761
6859,1795
6863,2019
6867,2473
6871,3103
6875,3973
6879,4095
6883,3566
6887,2889
6891,2341
6895,2057
6899,1963
6903,1957
6907,1974
6911,1971
6915,1938
6919,1931
6923,1920
6927,1920
6931,1901
6935,1887
6939,1897
6943,1904
6947,1901
6951,1903
6955,1905
6959,1915
6963,1905
6967,1907
6971,1919
6975,1921
6979,1919
6983,1921
6987,1933
6991,1946
6995,1937
6999,1936
7003,1943
7007,1954
7011,1966
7015,1966
7019,1979
7023,1987
7027,2000
7031,1993
7035,1999
7039,2007
7043,2015
7047,2014
7051,2028
7055,2043
7059,2066
7063,2067
7067,2074
7071,2096
7075,2113
7079,2117
7083,2125
7087,2141
7091,2158
7095,2171
7099,2175
7103,2189
7107,2210
7111,2217
7115,2213
7119,2216
7123,2234
7127,2240
7131,2229
7135,2227
7139,2243
7143,2240
7147,2224
7151,2192
7155,2173
7159,2132
7163,2090
7167,2032
7171,2007
7175,1973
7179,1936
7183,1911
7187,1886
7191,1877
7195,1856
7199,1840
7203,1840
7207,1841
7211,1838
7215,1835
7219,1834
7223,1847
7227,1844
7231,1840
7235,1836
7239,1834
7243,1836
7247,1833
7251,1835
7255,1842
7259,1853
7263,1851
7267,1842
7271,1857
7275,1855
7279,1850
7283,1859
7287,1856
7291,1874
7295,1864
7299,1850
7303,1857
7307,1872
7311,1874
7315,1868
7319,1872
7323,1886
7327,1883
7331,1878
7335,1870
7339,1872
7343,1885
7347,1872
7351,1872
7355,1872
7359,1873
7363,1869
7367,1872
7371,1887
7375,1882
7379,1871
7383,1869
7387,1875
7391,1884
7395,1876
7399,1875
7403,1893
7407,1899
7411,1893
7415,1872
7419,1877
7423,1891
7427,1893
7431,1879
7435,1879
7439,1895
7443,1905
7447,1904
7451,1904
7455,1907
7459,1904
7463,1901
7467,1895
7471,1909
7475,1920
7479,1924
7483,1914
7487,1913
7491,1929
7495,1925
7499,1918
7503,1919
7507,1930
7511,1936
7515,1921
7519,1915
7523,1920
7527,1934
7531,1933
7535,1935
7539,1938
7543,1939
7547,1931
7551,1930
7555,1937
7559,1951
7563,1947
7567,1936
7571,1945
7575,1948
7579,1877
7583,1936
7587,1947
7591,1951
7595,1951
7599,1944
7603,1941
7607,1947
7611,1953
7615,1959
7619,1927
7623,1969
7627,1978
7631,1961
7635,1956
7639,1968
7643,1977
7647,1966
7651,1963
7655,1973
7659,1978
7663,1984
7667,2012
7671,2027
7675,2033
7679,2033
7683,2041
7687,2054
7691,2055
7695,2034
7699,2016
7703,2013
7707,2009
7711,1999
7715,1968
7719,1968
7723,1974
7727,1979
7731,1971
7735,1969
7739,1974
7743,1979
7747,1973
7751,1970
7755,1984
7759,1978
7763,1970
7767,1970
7771,1987
7775,1980
7779,1930
7783,1834
7787,1787
7791,1889
7795,2192
7799,2640
7803,3249
7807,3888
7811,3698
7815,3119
7819,2558
7823,2149
7827,1971
7831,1942
7835,1955
7839,1979
7843,1975
7847,1949
7851,1929
7855,1926
7859,1929
7863,1919
7867,1904
7871,1907
7875,1915
7879,1910
7883,1911
7887,1923
7891,1934
7895,1936
7899,1925
7903,1925
7907,1939
7911,1951
7915,1937
7919,1943
7923,1958
7927,1964
7931,1965
7935,1959
7939,1971
7943,1969
7947,1968
7951,1973
7955,1983
7959,1997
7963,2000
7967,2000
7971,2015
7975,2019
7979,2027
7983,2026
7987,2039
7991,2063
7995,2066
7999,2071
8003,2083
8007,2096
8011,2111
8015,2113
8019,2129
8023,2152
8027,2162
8031,2172
8035,2177
8039,2192
8043,2203
8047,2209
8051,2212
8055,2223
8059,2228
8063,2221
8067,2217
8071,2216
8075,2213
8079,2187
8083,2150
8087,2118
8091,2091
8095,2043
8099,1993
8103,1950
8107,1925
8111,1899
8115,1869
8119,1861
8123,1845
8127,1844
8131,1827
8135,1826
8139,1837
8143,1825
8147,1814
8151,1811
8155,1817
8159,1818
8163,1810
8167,1807
8171,1825
8175,1830
8179,1828
8183,1814
8187,1827
8191,1837
8195,1838
8199,1834
8203,1842
8207,1855
8211,1850
8215,1845
8219,1841
8223,1851
8227,1854
8231,1851
8235,1843
8239,1859
8243,1863
8247,1850
8251,1847
8255,1860
8259,1867
8263,1859
8267,1859
8271,1870
8275,1873
8279,1865
8283,1871
8287,1869
8291,1879
8295,1871
8299,1862
8303,1855
8307,1870
8311,1868
8315,1865
8319,1858
8323,1865
8327,1871
8331,1874
8335,1870
8339,1886
8343,1891
8347,1876
8351,1872
8355,1875
8359,1879
8363,1877
8367,1871
8371,1879
8375,1895
8379,1889
8383,1875
8387,1885
8391,1902
8395,1893
8399,1895
8403,1894
8407,1905
8411,1904
8415,1894
8419,1889
8423,1899
8427,1904
8431,1894
8435,1897
8439,1903
8443,1905
8447,1904
8451,1904
8455,1908
8459,1919
8463,1915
8467,1911
8471,1918
8475,1918
8479,1911
8483,1904
8487,1915
8491,1921
8495,1920
8499,1910
8503,1910
8507,1921
8511,1933
8515,1920
8519,1923
8523,1935
8527,1927
8531,1914
8535,1922
8539,1923
8543,1946
8547,1921
8551,1932
8555,1939
8559,1941
8563,1936
8567,1936
8571,1936
8575,1939
8579,1935
8583,1935
8587,1938
8591,1946
8595,1952
8599,1937
8603,1942
8607,1964
8611,1990
8615,2001
8619,2018
8623,2016
8627,2019
8631,2007
8635,2005
8639,2011
8643,2002
8647,1973
8651,1968
8655,1957
8659,1951
8663,1939
8667,1942
8671,1947
8675,1957
8679,1953
8683,1941
8687,1945
8691,1949
8695,1964
8699,1953
8703,1951
8707,1963
8711,1959
8715,1954
8719,1949
8723,1919
8727,1815
8731,1735
8735,1811
8739,2181
8743,2765
8747,3531
8751,4095
8755,4095
8759,3792
8763,3008
8767,2403
8771,2083
8775,1982
8779,1956
8783,1965
8787,1941
8791,1933
8795,1902
8799,1881
8803,1872
8807,1871
8811,1872
8815,1855
8819,1854
8823,1871
8827,1872
8831,1858
8835,1872
8839,1889
8843,1901
8847,1883
8851,1888
8855,1895
8859,1909
8863,1904
8867,1904
8871,1913
8875,1917
8879,1914
8883,1919
8887,1933
8891,1937
8895,1938
8899,1936
8903,1947
8907,1963
8911,1966
8915,1963
8919,1968
8923,1984
8927,1991
8931,1995
8935,2007
8939,2023
8943,2027
8947,2026
8951,2037
8955,2067
8959,2080
8963,2093
8967,2101
8971,2128
8975,2145
8979,2146
8983,2158
8987,2181
8991,2190
8995,2197
8999,2192
9003,2206
9007,2222
9011,2224
9015,2224
9019,2213
9023,2208
9027,2179
9031,2140
9035,2111
9039,2084
9043,2038
9047,1991
9051,1950
9055,1934
9059,1904
9063,1873
9067,1849
9071,1850
9075,1846
9079,1835
9083,1824
9087,1824
9091,1835
9095,1826
9099,1824
9103,1823
9107,1836
9111,1837
9115,1833
9119,1839
9123,1843
9127,1846
9131,1839
9135,1840
9139,1845
9143,1845
9147,1843
9151,1851
9155,1857
9159,1860
9163,1854
9167,1851
9171,1857
9175,1870
9179,1855
9183,1855
9187,1867
9191,1871
9195,1861
9199,1857
9203,1865
9207,1874
9211,1872
9215,1872
9219,1873
9223,1881
9227,1878
9231,1872
9235,1872
9239,1880
9243,1881
9247,1867
9251,1861
9255,1882
9259,1873
9263,1873
9267,1870
9271,1871
9275,1883
9279,1872
9283,1872
9287,1878
9291,1887
9295,1887
9299,1878
9303,1889
9307,1887
9311,1884
9315,1875
9319,1885
9323,1898
9327,1901
9331,1890
9335,1886
9339,1904
9343,1902
9347,1890
9351,1897
9355,1904
9359,1907
9363,1903
9367,1902
9371,1908
9375,1913
9379,1916
9383,1904
9387,1918
9391,1930
9395,1920
9399,1917
9403,1917
9407,1929
9411,1923
9415,1926
9419,1913
9423,1933
9427,1921
9431,1919
9435,1932
9439,1926
9443,1936
9447,1923
9451,1923
9455,1925
9459,1936
9463,1920
9467,1934
9471,1936
9475,1941
9479,1936
9483,1932
9487,1941
9491,1948
9495,1954
9499,1937
9503,1954
9507,1954
9511,1952
9515,1941
9519,1949
9523,1963
9527,1964
9531,1951
9535,1952
9539,1967
9543,1958
9547,1962
9551,1964
9555,1967
9559,1968
9563,1962
9567,1955
9571,1955
9575,1958
9579,1962
9583,1955
9587,1966
9591,1974
9595,1968
9599,1962
9603,1969
9607,1973
9611,1973
9615,1956
9619,1969
9623,1975
9627,1973
9631,1968
9635,1978
9639,1998
9643,2031
9647,2036
9651,2039
9655,2043
9659,2060
9663,2053
9667,2039
9671,2035
9675,2027
9679,2013
9683,2000
9687,1989
9691,1969
9695,1968
9699,1959
9703,1969
9707,1984
9711,1979
9715,1972
9719,1979
9723,1984
9727,1979
9731,1968
9735,1968
9739,1973
9743,1975
9747,1979
9751,1965
9755,1914
9759,1811
9763,1726
9767,1842
9771,2277
9775,2941
9779,3913
9783,4095
9787,4095
9791,4013
9795,3102
9799,2432
9803,2095
9807,1989
9811,1972
9815,1954
9819,1943
9823,1927
9827,1904
9831,1875
9835,1871
9839,1872
9843,1861
9847,1852
9851,1851
9855,1861
9859,1872
9863,1867
9867,1866
9871,1877
9875,1884
9879,1880
9883,1879
9887,1893
9891,1897
9895,1895
9899,1884
9903,1904
9907,1906
9911,1908
9915,1904
9919,1905
9923,1926
9927,1936
9931,1927
9935,1933
9939,1942
9943,1957
9947,1963
9951,1959
9955,1967
9959,1979
9963,1980
9967,1990
9971,2010
9975,2028
9979,2032
9983,2032
9987,2063
9991,2081
9995,2090
9999,2102
10003,2118
10007,2143
10011,2151
10015,2160
10019,2176
10023,2192
10027,2205
10031,2197
10035,2208
10039,2224
10043,2227
10047,2218
10051,2209
10055,2210
10059,2186
10063,2157
10067,2117
10071,2082
10075,2037
10079,1997
10083,1958
10087,1927
10091,1907
10095,1878
10099,1858
10103,1849
10107,1846
10111,1841
10115,1821
10119,1825
10123,1838
10127,1834
10131,1825
10135,1826
10139,1842
10143,1843
10147,1828
10151,1829
10155,1840
10159,1846
10163,1838
10167,1839
10171,1843
10175,1851
10179,1843
10183,1838
10187,1843
10191,1856
10195,1853
10199,1840
10203,1846
10207,1859
10211,1858
10215,1847
10219,1855
10223,1863
10227,1860
10231,1855
10235,1857
10239,1869
10243,1866
10247,1855
10251,1857
10255,1870
10259,1871
10263,1857
10267,1847
10271,1863
10275,1869
10279,1870
10283,1865
10287,1872
10291,1872
10295,1863
10299,1861
10303,1872
10307,1883
10311,1878
10315,1868
10319,1872
10323,1877
10327,1881
10331,1872
10335,1872
10339,1879
10343,1837
10347,1885
10351,1887
10355,1894
10359,1893
10363,1872
10367,1887
10371,1885
10375,1932
10379,1878
10383,1891
10387,1887
10391,1904
10395,1891
10399,1889
10403,1900
10407,1917
10411,1908
10415,1899
10419,1902
10423,1908
10427,1902
10431,1904
10435,1914
10439,1927
10443,1920
10447,1911
10451,1919
10455,1930
10459,1930
10463,1919
10467,1922
10471,1927
10475,1927
10479,1918
10483,1915
10487,1923
10491,1932
10495,1926
10499,1925
10503,1936
10507,1937
10511,1935
10515,1931
10519,1933
10523,1938
10527,1943
10531,1936
10535,1949
10539,1955
10543,1948
10547,1941
10551,1939
10555,1958
10559,1957
10563,1947
10567,1945
10571,1947
10575,1953
10579,1951
10583,1939
10587,1950
10591,1955
10595,1956
10599,1951
10603,1961
10607,1963
10611,1955
10615,1949
10619,1953
10623,1967
10627,1965
10631,1957
10635,1968
10639,1965
10643,1962
10647,1953
10651,1955
10655,1967
10659,1970
10663,1968
10667,1983
10671,2013
10675,2032
10679,2031
10683,2037
10687,2058
10691,2065
10695,2046
10699,2028
10703,2019
10707,2016
10711,1988
10715,1963
10719,1962
10723,1966
10727,1968
10731,1963
10735,1954
10739,1966
10743,1969
10747,1965
10751,1966
10755,1968
10759,1973
10763,1968
10767,1962
10771,1973
10775,1974
10779,1955
10783,1904
10787,1808
10791,1731
10795,1804
10799,2158
10803,2765
10807,3635
10811,4095
10815,4095
10819,3952
10823,3079
10827,2427
10831,2096
10835,1986
10839,1984
10843,1982
10847,1953
10851,1931
10855,1916
10859,1903
10863,1899
10867,1879
10871,1882
10875,1882
10879,1871
10883,1872
10887,1882
10891,1889
10895,1878
10899,1879
10903,1888
10907,1899
10911,1888
10915,1892
10919,1898
10923,1915
10927,1911
10931,1904
10935,1913
10939,1926
10943,1930
10947,1923
10951,1936
10955,1939
10959,1955
10963,1949
10967,1958
10971,1971
10975,1977
10979,1973
10983,1985
10987,2003
10991,2015
10995,2007
10999,2006
11003,2032
11007,2055
11011,2064
11015,2069
11019,2096
11023,2114
11027,2128
11031,2129
11035,2157
11039,2178
11043,2192
11047,2192
11051,2192
11055,2215
11059,2224
11063,2225
11067,2229
11071,2239
11075,2242
11079,2223
11083,2205
11087,2192
11091,2159
11095,2116
11099,2068
11103,2038
11107,2003
11111,1963
11115,1917
11119,1902
11123,1881
11127,1857
11131,1839
11135,1842
11139,1841
11143,1840
11147,1825
11151,1825
11155,1827
11159,1823
11163,1823
11167,1813
11171,1827
11175,1834
11179,1827
11183,1819
11187,1839
11191,1845
11195,1837
11199,1833
11203,1851
11207,1853
11211,1851
11215,1845
11219,1855
11223,1858
11227,1857
11231,1847
11235,1853
11239,1861
11243,1862
11247,1854
11251,1863
11255,1870
11259,1873
11263,1821
11267,1875
11271,1872
11275,1871
11279,1859
11283,1859
11287,1868
11291,1863
11295,1893
11299,1870
11303,1853
11307,1872
11311,1859
11315,1855
11319,1867
11323,1870
11327,1871
11331,1858
11335,1863
11339,1877
11343,1877
11347,1875
11351,1872
11355,1891
11359,1883
11363,1894
11367,1887
11371,1891
11375,1888
11379,1884
11383,1888
11387,1892
11391,1904
11395,1904
11399,1891
11403,1888
11407,1904
11411,1900
11415,1906
11419,1904
11423,1906
11427,1901
11431,1902
11435,1906
11439,1910
11443,1914
11447,1913
11451,1917
11455,1919
11459,1923
11463,1919
11467,1908
11471,1911
11475,1920
11479,1916
11483,1907
11487,1930
11491,1939
11495,1922
11499,1920
11503,1926
11507,1940
11511,1942
11515,1924
11519,1933
11523,1936
11527,1938
11531,1921
11535,1934
11539,1942
11543,1935
11547,1936
11551,1942
11555,1947
11559,1946
11563,1941
11567,1930
11571,1948
11575,1949
11579,1946
11583,1940
11587,1949
11591,1952
11595,1953
11599,1943
11603,1957
11607,1965
11611,1959
11615,1954
11619,1964
11623,1970
11627,1968
11631,1954
11635,1958
11639,1968
11643,1965
11647,1966
11651,1959
11655,1968
11659,1968
11663,1968
11667,1981
11671,2018
11675,2037
11679,2038
11683,2041
11687,2061
11691,2064
11695,2039
11699,2017
11703,2014
11707,2005
11711,1993
11715,1968
11719,1963
11723,1978
11727,1974
11731,1968
11735,1973
11739,1975
11743,1979
11747,1966
11751,1970
11755,1971
11759,1973
11763,1969
11767,1967
11771,1979
11775,1980
11779,1977
11783,1959
11787,1909
11791,1821
11795,1767
11799,1879
11803,2210
11807,2709
11811,3358
11815,3997
11819,3738
11823,3135
11827,2547
11831,2135
11835,1970
11839,1958
11843,1968
11847,1968
11851,1954
11855,1948
11859,1931
11863,1921
11867,1915
11871,1926
11875,1918
11879,1919
11883,1905
11887,1918
11891,1927
11895,1925
11899,1919
11903,1936
11907,1942
11911,1947
11915,1938
11919,1949
11923,1952
11927,1958
11931,1953
11935,1963
11939,1969
11943,1966
11947,1968
11951,1982
11955,2000
11959,2000
11963,2000
11967,1994
11971,2016
11975,2023
11979,2015
11983,2023
11987,2037
11991,2047
11995,2047
11999,2054
12003,2069
12007,2086
12011,2093
12015,2103
12019,2123
12023,2150
12027,2155
12031,2160
12035,2180
12039,2197
12043,2207
12047,2205
12051,2219
12055,2238
12059,2244
12063,2231
12067,2238
12071,2252
12075,2254
12079,2237
12083,2223
12087,2211
12091,2189
12095,2143
12099,2109
12103,2064
12107,2026
12111,1986
12115,1951
12119,1922
12123,1909
12127,1879
12131,1871
12135,1856
12139,1855
12143,1849
12147,1834
12151,1831
12155,1840
12159,1839
12163,1822
12167,1828
12171,1842
12175,1808
12179,1830
12183,1831
12187,1840
12191,1854
12195,1847
12199,1847
12203,1841
12207,1872
12211,1853
12215,1857
12219,1872
12223,1867
12227,1864
12231,1872
12235,1874
12239,1876
12243,1875
12247,1875
12251,1873
12255,1877
12259,1872
12263,1874
12267,1862
12271,1882
12275,1886
12279,1877
12283,1873
12287,1879
12291,1885
12295,1878
12299,1872
12303,1883
12307,1882
12311,1873
12315,1875
12319,1872
12323,1879
12327,1867
12331,1871
12335,1885
12339,1885
12343,1888
12347,1882
12351,1879
12355,1882
12359,1878
12363,1877
12367,1874
12371,1889
12375,1898
12379,1883
12383,1882
12387,1893
12391,1899
12395,1886
12399,1894
12403,1899
12407,1902
12411,1901
12415,1894
12419,1907
12423,1914
12427,1910
12431,1904
12435,1918
12439,1919
12443,1914
12447,1904
12451,1916
12455,1927
12459,1922
12463,1916
12467,1923
12471,1931
12475,1934
12479,1913
12483,1914
12487,1929
12491,1934
12495,1928
12499,1923
12503,1932
12507,1942
12511,1934
12515,1931
12519,1933
12523,1939
12527,1922
12531,1920
12535,1923
12539,1937
12543,1934
12547,1935
12551,1934
12555,1943
12559,1953
12563,1937
12567,1946
12571,1956
12575,1957
12579,1947
12583,1943
12587,1951
12591,1947
12595,1947
12599,1953
12603,1953
12607,1953
12611,1945
12615,1937
12619,1951
12623,1962
12627,1954
12631,1957
12635,1971
12639,1974
12643,1968
12647,1963
12651,1967
12655,1971
12659,1969
12663,1968
12667,1968
12671,1970
12675,1979
12679,1968
12683,1963
12687,1971
12691,1973
12695,1968
12699,1975
12703,1979
12707,1999
12711,2000
12715,2003
12719,2030
12723,2036
12727,2036
12731,2027
12735,2034
12739,2031
12743,2024
12747,2011
12751,2001
12755,1997
12759,1978
12763,1965
12767,1966
12771,1975
12775,1978
12779,1970
12783,1977
12787,1978
12791,1975
12795,1973
12799,1969
12803,1981
12807,1982
12811,1975
12815,1967
12819,1975
12823,1939
12827,1851
12831,1753
12835,1825
12839,2147
12843,2687
12847,3399
12851,4095
12855,4095
12859,3814
12863,3044
12867,2447
12871,2117
12875,1992
12879,1967
12883,1961
12887,1952
12891,1936
12895,1902
12899,1889
12903,1891
12907,1879
12911,1872
12915,1862
12919,1878
12923,1881
12927,1881
12931,1870
12935,1872
12939,1886
12943,1883
12947,1881
12951,1889
12955,1899
12959,1904
12963,1905
12967,1906
12971,1920
12975,1925
12979,1916
12983,1919
12987,1930
12991,1937
12995,1936
12999,1936
13003,1939
13007,1947
13011,1954
13015,1953
13019,1968
13023,1983
13027,1979
13031,1979
13035,1995
13039,2010
13043,2018
13047,2027
13051,2039
13055,2067
13059,2078
13063,2076
13067,2095
13071,2112
13075,2128
13079,2128
13083,2150
13087,2170
13091,2179
13095,2181
13099,2190
13103,2202
13107,2195
13111,2213
13115,2209
13119,2219
13123,2186
13127,2191
13131,2142
13135,2114
13139,2087
13143,2045
13147,2007
13151,1971
13155,1940
13159,1911
13163,1877
13167,1867
13171,1856
13175,1845
13179,1831
13183,1825
13187,1821
13191,1820
13195,1822
13199,1818
13203,1828
13207,1831
13211,1831
13215,1824
13219,1837
13223,1839
13227,1838
13231,1831
13235,1841
13239,1844
13243,1846
13247,1840
13251,1830
13255,1857
13259,1849
13263,1842
13267,1849
13271,1856
13275,1859
13279,1847
13283,1856
13287,1868
13291,1869
13295,1854
13299,1851
13303,1872
13307,1869
13311,1859
13315,1861
13319,1872
13323,1878
13327,1878
13331,1872
13335,1881
13339,1878
13343,1875
13347,1859
13351,1873
13355,1884
13359,1875
13363,1873
13367,1877
13371,1882
13375,1885
13379,1878
13383,1875
13387,1888
13391,1889
13395,1879
13399,1883
13403,1888
13407,1898
13411,1890
13415,1877
13419,1883
13423,1895
13427,1901
13431,1891
13435,1891
13439,1894
13443,1890
13447,1888
13451,1889
13455,1904
13459,1904
13463,1901
13467,1899
13471,1906
13475,1911
13479,1905
13483,1904
13487,1913
13491,1917
13495,1914
13499,1908
13503,1920
13507,1920
13511,1915
13515,1904
13519,1909
13523,1923
13527,1918
13531,1914
13535,1918
13539,1931
13543,1922
13547,1923
13551,1922
13555,1929
13559,1930
13563,1920
13567,1919
13571,1936
13575,1938
13579,1933
13583,1937
13587,1950
13591,1946
13595,1933
13599,1934
13603,1938
13607,1943
13611,1939
13615,1939
13619,1945
13623,1955
13627,1941
13631,1938
13635,1944
13639,1952
13643,1952
13647,1946
13651,1952
13655,1955
13659,1951
13663,1936
13667,1940
13671,1959
13675,1953
13679,1950
13683,1949
13687,1954
13691,1962
13695,1951
13699,1950
13703,1953
13707,1967
13711,1952
13715,1947
13719,1965
13723,1971
13727,1973
13731,1962
13735,1971
13739,1979
13743,1982
13747,1968
13751,1968
13755,1981
13759,1978
13763,1977
13767,1976
13771,1986
13775,1983
13779,1974
13783,1974
13787,1977
13791,1980
13795,1977
13799,1978
13803,1983
13807,2000
13811,2009
13815,2021
13819,2043
13823,2047
13827,2047
13831,2042
13835,2053
13839,2043
13843,2027
13847,2010
13851,2007
13855,1998
13859,1981
13863,1960
13867,1973
13871,1984
13875,1984
13879,1970
13883,1977
13887,1984
13891,1980
13895,1978
13899,1977
13903,1983
13907,1982
13911,1984
13915,1978
13919,1963
13923,1904
13927,1793
13931,1741
13935,1914
13939,2370
13943,3025
13947,4016
13951,4095
13955,4095
13959,3797
13963,2946
13967,2368
13971,2075
13975,1979
13979,1963
13983,1953
13987,1950
13991,1918
13995,1882
13999,1865
14003,1868
14007,1869
14011,1872
14015,1891
14019,1865
14023,1861
14027,1869
14031,1850
14035,1871
14039,1892
14043,1886
14047,1872
14051,1893
14055,1856
14059,1901
14063,1889
14067,1898
14071,1906
14075,1911
14079,1906
14083,1904
14087,1914
14091,1919
14095,1911
14099,1923
14103,1935
14107,1934
14111,1943
14115,1936
14119,1948
14123,1962
14127,1965
14131,1968
14135,1994
14139,2002
14143,2007
14147,2003
14151,2015
14155,2036
14159,2054
14163,2063
14167,2087
14171,2112
14175,2112
14179,2123
14183,2133
14187,2158
14191,2165
14195,2167
14199,2176
14203,2193
14207,2199
14211,2203
14215,2195
14219,2213
14223,2199
14227,2170
14231,2142
14235,2112
14239,2078
14243,2032
14247,1981
14251,1949
14255,1927
14259,1904
14263,1872
14267,1857
14271,1855
14275,1835
14279,1813
14283,1815
14287,1815
14291,1823
14295,1813
14299,1811
14303,1823
14307,1826
14311,1826
14315,1830
14319,1839
14323,1840
14327,1825
14331,1830
14335,1831
14339,1845
14343,1840
14347,1834
14351,1841
14355,1845
14359,1853
14363,1845
14367,1845
14371,1855
14375,1851
14379,1841
14383,1855
14387,1859
14391,1860
14395,1851
14399,1854
14403,1861
14407,1867
14411,1864
14415,1859
14419,1869
14423,1871
14427,1866
14431,1856
14435,1859
14439,1871
14443,1863
14447,1859
14451,1859
14455,1865
14459,1859
14463,1865
14467,1863
14471,1872
14475,1870
14479,1867
14483,1866
14487,1877
14491,1878
14495,1869
14499,1872
14503,1879
14507,1877
14511,1872
14515,1872
14519,1889
14523,1891
14527,1884
14531,1874
14535,1885
14539,1902
14543,1895
14547,1897
14551,1898
14555,1904
14559,1895
14563,1886
14567,1897
14571,1909
14575,1904
14579,1892
14583,1886
14587,1899
14591,1905
14595,1894
14599,1899
14603,1909
14607,1918
14611,1909
14615,1906
14619,1910
14623,1919
14627,1919
14631,1911
14635,1923
14639,1928
14643,1927
14647,1925
14651,1931
14655,1936
14659,1935
14663,1925
14667,1934
14671,1936
14675,1938
14679,1930
14683,1936
14687,1942
14691,1943
14695,1939
14699,1937
14703,1952
14707,1949
14711,1941
14715,1946
14719,1953
14723,1956
14727,1941
14731,1936
14735,1951
14739,1958
14743,1955
14747,1946
14751,1954
14755,1958
14759,1949
14763,1942
14767,1950
14771,1963
14775,1959
14779,1954
14783,1953
14787,1961
14791,1958
14795,1957
14799,1966
14803,1967
14807,1968
14811,1963
14815,1966
14819,1971
14823,1972
14827,1970
14831,1969
14835,1968
14839,1980
14843,1969
14847,1969
14851,1968
14855,1983
14859,1999
14863,2011
14867,2032
14871,2042
14875,2039
14879,2039
14883,2058
14887,2052
14891,2033
14895,2017
14899,2006
14903,2001
14907,1983
14911,1966
14915,1968
14919,1980
14923,1983
14927,1999
14931,1968
14935,1969
14939,1982
14943,1967
14947,1954
14951,1970
14955,1969
14959,1968
14963,1970
14967,1977
14971,1947
14975,1849
14979,1757
14983,1772
14987,2017
14991,2522
14995,3225
14999,4095
15003,4095
15007,4095
15011,3263
15015,2576
15019,2174
15023,2016
15027,1969
15031,1980
15035,1968
15039,1952
15043,1925
15047,1894
15051,1886
15055,1903
15059,1884
15063,1873
15067,1878
15071,1886
15075,1891
15079,1879
15083,1887
15087,1901
15091,1904
15095,1899
15099,1902
15103,1909
15107,1920
15111,1920
15115,1927
15119,1936
15123,1933
15127,1935
15131,1936
15135,1955
15139,1955
15143,1950
15147,1946
15151,1968
15155,1975
15159,1988
15163,1981
15167,1989
15171,2003
15175,2000
15179,2003
15183,2017
15187,2037
15191,2046
15195,2039
15199,2053
15203,2080
15207,2097
15211,2101
15215,2112
15219,2133
15223,2161
15227,2167
15231,2167
15235,2192
15239,2205
15243,2214
15247,2218
15251,2234
15255,2241
15259,2247
15263,2243
15267,2243
15271,2237
15275,2221
15279,2192
15283,2162
15287,2131
15291,2085
15295,2036
15299,1991
15303,1968
15307,1941
15311,1914
15315,1885
15319,1879
15323,1872
15327,1850
15331,1842
15335,1845
15339,1843
15343,1839
15347,1838
15351,1851
15355,1855
15359,1843
15363,1832
15367,1840
15371,1854
15375,1850
15379,1840
15383,1844
15387,1845
15391,1843
15395,1847
15399,1855
15403,1870
15407,1869
15411,1860
15415,1861
15419,1862
15423,1869
15427,1860
15431,1858
15435,1861
15439,1872
15443,1859
15447,1866
15451,1871
15455,1883
15459,1883
15463,1874
15467,1872
15471,1879
15475,1881
15479,1866
15483,1862
15487,1875
15491,1883
15495,1870
15499,1872
15503,1877
15507,1872
15511,1871
15515,1871
15519,1883
15523,1885
15527,1878
15531,1873
15535,1889
15539,1888
15543,1893
15547,1878
15551,1891
15555,1895
15559,1898
15563,1895
15567,1893
15571,1901
15575,1895
15579,1887
15583,1887
15587,1903
15591,1904
15595,1898
15599,1900
15603,1910
15607,1911
15611,1904
15615,1900
15619,1905
15623,1910
15627,1907
15631,1899
15635,1910
15639,1925
15643,1915
15647,1919
15651,1926
15655,1933
15659,1926
15663,1921
15667,1926
15671,1923
15675,1917
15679,1913
15683,1918
15687,1935
15691,1938
15695,1927
15699,1923
15703,1935
15707,1934
15711,1934
15715,1936
15719,1942
15723,1947
15727,1943
15731,1934
15735,1939
15739,1957
15743,1955
15747,1959
15751,1955
15755,1965
15759,1951
15763,1946
15767,1951
15771,1959
15775,1954
15779,1951
15783,1956
15787,1967
15791,1968
15795,1957
15799,1954
15803,1961
15807,1968
15811,1955
15815,1959
15819,1971
15823,1971
15827,1974
15831,1991
15835,2023
15839,2032
15843,2028
15847,2013
15851,2037
15855,2057
15859,2010
15863,2002
15867,1990
15871,1989
15875,1979
15879,1959
15883,1956
15887,1967
15891,1963
15895,1953
15899,1975
15903,1974
15907,1973
15911,1966
15915,1965
15919,1980
15923,1983
15927,1967
15931,1963
15935,1971
15939,1982
15943,1937
15947,1869
15951,1790
15955,1799
15959,2002
15963,2419
15967,3003
15971,3803
15975,4095
15979,3500
15983,2863
15987,2335
15991,2039
15995,1952
15999,1961
16003,1979
16007,1973
16011,1943
16015,1936
16019,1926
16023,1922
16027,1910
16031,1902
16035,1911
16039,1915
16043,1919
16047,1910
16051,1911
16055,1917
16059,1921
16063,1920
16067,1931
16071,1936
16075,1936
16079,1932
16083,1942
16087,1951
16091,1963
16095,1958
16099,1957
16103,1968
16107,1969
16111,1967
16115,1973
16119,1989
16123,2002
16127,1997
16131,1999
16135,2007
16139,2023
16143,2034
16147,2032
16151,2058
16155,2070
16159,2074
16163,2079
16167,2089
16171,2112
16175,2123
16179,2128
16183,2139
16187,2163
16191,2183
16195,2189
16199,2196
16203,2214
16207,2229
16211,2225
16215,2222
16219,2230
16223,2242
16227,2243
16231,2239
16235,2243
16239,2241
16243,2227
16247,2196
16251,2176
16255,2150
16259,2112
16263,2063
16267,2025
16271,1987
16275,1962
16279,1921
16283,1904
16287,1890
16291,1873
16295,1853
16299,1845
16303,1845
16307,1847
16311,1840
16315,1840
16319,1845
16323,1853
16327,1844
16331,1842
16335,1840
16339,1844
16343,1839
16347,1840
16351,1853
16355,1859
16359,1854
16363,1850
16367,1856
16371,1861
16375,1857
16379,1856
16383,1860
16387,1866
16391,1871
16395,1867
16399,1870
16403,1873
16407,1882
16411,1874
16415,1872
16419,1872
16423,1887
16427,1883
16431,1876
16435,1875
16439,1883
16443,1874
16447,1872
16451,1878
16455,1881
16459,1877
16463,1872
16467,1879
16471,1883
16475,1873
16479,1861
16483,1872
16487,1878
16491,1883
16495,1872
16499,1882
16503,1895
16507,1903
16511,1883
16515,1876
16519,1890
16523,1891
16527,1887
16531,1879
16535,1899
16539,1903
16543,1895
16547,1881
16551,1898
16555,1902
16559,1899
16563,1889
16567,1899
16571,1902
16575,1893
16579,1891
16583,1901
16587,1907
16591,1904
16595,1901
16599,1898
16603,1906
16607,1917
16611,1904
16615,1905
16619,1910
16623,1918
16627,1918
16631,1907
16635,1914
16639,1925
16643,1926
16647,1920
16651,1925
16655,1933
16659,1925
16663,1925
16667,1927
16671,1938
16675,1930
16679,1936
16683,1931
16687,1949
16691,1938
16695,1937
16699,1937
16703,1951
16707,1955
16711,1946
16715,1936
16719,1943
16723,1948
16727,1945
16731,1945
16735,1947
16739,1959
16743,1951
16747,1953
16751,1959
16755,1968
16759,1959
16763,1954
16767,1969
16771,1985
16775,2005
16779,2017
16783,2000
16787,2032
16791,2065
16795,2035
16799,2015
16803,2037
16807,2000
16811,1983
16815,1964
16819,1968
16823,1959
16827,1951
16831,1958
16835,1964
16839,1968
16843,1966
16847,1954
16851,1959
16855,1968
16859,1967
16863,1961
16867,1973
16871,1969
16875,1968
16879,1955
16883,1953
16887,1908
16891,1814
16895,1774
16899,1893
16903,2259
16907,2815
16911,3530
16915,4095
16919,4043
16923,3307
16927,2671
16931,2215
16935,2001
16939,1974
16943,1970
16947,1959
16951,1939
16955,1937
16959,1910
16963,1888
16967,1879
16971,1884
16975,1878
16979,1873
16983,1872
16987,1891
16991,1893
16995,1886
16999,1885
17003,1899
17007,1902
17011,1895
17015,1898
17019,1906
17023,1923
17027,1920
17031,1915
17035,1923
17039,1933
17043,1926
17047,1925
17051,1943
17055,1943
17059,1950
17063,1951
17067,1968
17071,1975
17075,1981
17079,1977
17083,1983
17087,2000
17091,2007
17095,2007
17099,2015
17103,2027
17107,2039
17111,2055
17115,2064
17119,2074
17123,2092
17127,2100
17131,2112
17135,2131
17139,2151
17143,2155
17147,2169
17151,2192
17155,2208
17159,2205
17163,2204
17167,2209
17171,2221
17175,2223
17179,2213
17183,2206
17187,2198
17191,2176
17195,2133
17199,2103
17203,2086
17207,2035
17211,1994
17215,1942
17219,1919
17223,1907
17227,1877
17231,1852
17235,1851
17239,1853
17243,1840
17247,1826
17251,1823
17255,1835
17259,1830
17263,1821
17267,1824
17271,1830
17275,1835
17279,1823
17283,1831
17287,1839
17291,1844
17295,1839
17299,1846
17303,1846
17307,1850
17311,1842
17315,1847
17319,1855
17323,1871
17327,1857
17331,1850
17335,1859
17339,1872
17343,1872
17347,1866
17351,1872
17355,1876
17359,1874
17363,1872
17367,1872
17371,1885
17375,1888
17379,1875
17383,1877
17387,1888
17391,1882
17395,1874
17399,1872
17403,1882
17407,1883
17411,1873
17415,1874
17419,1888
17423,1881
17427,1878
17431,1873
17435,1873
17439,1883
17443,1876
17447,1861
17451,1872
17455,1887
17459,1879
17463,1883
17467,1883
17471,1893
17475,1894
17479,1885
17483,1887
17487,1885
17491,1889
17495,1889
17499,1895
17503,1901
17507,1911
17511,1913
17515,1903
17519,1907
17523,1907
17527,1913
17531,1901
17535,1904
17539,1917
17543,1915
17547,1906
17551,1915
17555,1920
17559,1920
17563,1920
17567,1918
17571,1924
17575,1925
17579,1929
17583,1925
17587,1943
17591,1939
17595,1923
17599,1930
17603,1932
17607,1936
17611,1941
17615,1935
17619,1936
17623,1935
17627,1936
17631,1934
17635,1936
17639,1942
17643,1937
17647,1933
17651,1935
17655,1937
17659,1941
17663,1926
17667,1937
17671,1950
17675,1955
17679,1982
17683,1947
17687,1951
17691,1949
17695,1943
17699,1946
17703,1961
17707,1968
17711,1941
17715,1949
17719,1952
17723,1967
17727,1955
17731,1954
17735,1962
17739,1968
17743,1970
17747,1964
17751,1973
17755,1969
17759,1978
17763,1973
17767,1975
17771,2007
17775,1980
17779,1977
17783,1986
17787,2015
17791,2026
17795,2038
17799,2061
17803,2068
17807,2064
17811,2054
17815,2029
17819,2021
17823,2021
17827,2001
17831,1969
17835,1972
17839,1968
17843,1966
17847,1966
17851,1969
17855,1968
17859,1969
17863,1967
17867,1963
17871,1968
17875,1975
17879,1972
17883,1968
17887,1981
17891,1982
17895,1951
17899,1884
17903,1807
17907,1775
17911,1947
17915,2369
17919,2993
17923,3867
17927,4095
17931,4019
17935,3248
17939,2622
17943,2193
17947,2004
17951,1969
17955,1976
17959,1963
17963,1936
17967,1925
17971,1915
17975,1898
17979,1879
17983,1881
17987,1889
17991,1879
17995,1878
17999,1875
18003,1888
18007,1893
18011,1886
18015,1885
18019,1904
18023,1918
18027,1910
18031,1905
18035,1913
18039,1923
18043,1927
18047,1919
18051,1933
18055,1936
18059,1937
18063,1931
18067,1935
18071,1952
18075,1963
18079,1968
18083,1969
18087,1978
18091,1986
18095,1975
18099,1982
18103,1998
18107,2013
18111,2021
18115,2023
18119,2046
18123,2053
18127,2064
18131,2067
18135,2096
18139,2103
18143,2117
18147,2130
18151,2147
18155,2167
18159,2176
18163,2177
18167,2177
18171,2198
18175,2210
18179,2210
18183,2213
18187,2218
18191,2218
18195,2205
18199,2187
18203,2177
18207,2154
18211,2119
18215,2075
18219,2047
18223,2010
18227,1968
18231,1929
18235,1912
18239,1893
18243,1873
18247,1859
18251,1855
18255,1850
18259,1841
18263,1829
18267,1827
18271,1846
18275,1840
18279,1840
18283,1841
18287,1847
18291,1860
18295,1845
18299,1847
18303,1853
18307,1853
18311,1856
18315,1855
18319,1863
18323,1872
18327,1871
18331,1866
18335,1861
18339,1876
18343,1869
18347,1872
18351,1871
18355,1879
18359,1870
18363,1866
18367,1872
18371,1873
18375,1885
18379,1875
18383,1872
18387,1887
18391,1881
18395,1872
18399,1870
18403,1883
18407,1875
18411,1872
18415,1863
18419,1875
18423,1883
18427,1876
18431,1862
18435,1870
18439,1885
18443,1878
18447,1875
18451,1885
18455,1891
18459,1885
18463,1885
18467,1884
18471,1890
18475,1889
18479,1885
18483,1879
18487,1889
18491,1887
18495,1876
18499,1887
18503,1893
18507,1895
18511,1889
18515,1888
18519,1889
18523,1898
18527,1891
18531,1891
18535,1897
18539,1909
18543,1891
18547,1883
18551,1892
18555,1909
18559,1910
18563,1886
18567,1897
18571,1903
18575,1913
18579,1905
18583,1904
18587,1909
18591,1914
18595,1909
18599,1867
18603,1915
18607,1903
18611,1914
18615,1906
18619,1917
18623,1925
18627,1915
18631,1921
18635,1926
18639,1908
18643,1914
18647,1921
18651,1942
18655,1934
18659,1936
18663,1929
18667,1918
18671,1931
18675,1931
18679,1925
18683,1920
18687,1935
18691,1931
18695,1922
18699,1928
18703,1936
18707,1943
18711,1936
18715,1926
18719,1936
18723,1936
18727,1936
18731,1925
18735,1930
18739,1943
18743,1937
18747,1935
18751,1942
18755,1939
18759,1941
18763,1941
18767,1946
18771,1952
18775,1946
18779,1938
18783,1936
18787,1950
18791,1957
18795,1979
18799,1996
18803,2000
18807,2017
18811,2019
18815,2015
18819,2018
18823,2011
18827,1994
18831,1982
18835,1972
18839,1959
18843,1949
18847,1933
18851,1942
18855,1954
18859,1952
18863,1943
18867,1937
18871,1941
18875,1942
18879,1936
18883,1936
18887,1936
18891,1947
18895,1936
18899,1936
18903,1947
18907,1931
18911,1846
18915,1755
18919,1757
18923,1981
18927,2448
18931,3088
18935,4003
18939,4095
18943,3898
18947,3111
18951,2487
18955,2123
18959,1975
18963,1946
18967,1947
18971,1938
18975,1927
18979,1901
18983,1890
18987,1885
18991,1872
18995,1858
18999,1847
19003,1863
19007,1872
19011,1872
19015,1869
19019,1879
19023,1888
19027,1888
19031,1878
19035,1885
19039,1889
19043,1897
19047,1894
19051,1903
19055,1916
19059,1919
19063,1904
19067,1904
19071,1921
19075,1921
19079,1923
19083,1931
19087,1939
19091,1950
19095,1938
19099,1939
19103,1958
19107,1969
19111,1981
19115,1983
19119,1990
19123,2010
19127,2022
19131,2021
19135,2030
19139,2059
19143,2061
19147,2066
19151,2087
19155,2112
19159,2127
19163,2128
19167,2142
19171,2161
19175,2170
19179,2175
19183,2165
19187,2187
19191,2196
19195,2192
19199,2199
19203,2199
19207,2193
19211,2165
19215,2140
19219,2126
19223,2099
19227,2055
19231,2005
19235,1976
19239,1955
19243,1920
19247,1894
19251,1869
19255,1858
19259,1855
19263,1840
19267,1828
19271,1827
19275,1837
19279,1823
19283,1822
19287,1837
19291,1827
19295,1834
19299,1834
19303,1835
19307,1841
19311,1834
19315,1837
19319,1840
19323,1856
19327,1854
19331,1841
19335,1854
19339,1866
19343,1856
19347,1854
19351,1861
19355,1869
19359,1867
19363,1856
19367,1867
19371,1869
19375,1867
19379,1869
19383,1865
19387,1871
19391,1872
19395,1871
19399,1863
19403,1878
19407,1886
19411,1872
19415,1872
19419,1881
19423,1887
19427,1892
19431,1882
19435,1874
19439,1890
19443,1883
19447,1874
19451,1875
19455,1894
19459,1890
19463,1890
19467,1891
19471,1897
19475,1899
19479,1893
19483,1898
19487,1903
19491,1907
19495,1899
19499,1893
19503,1904
19507,1965
19511,1867
19515,1968
19519,1899
19523,1904
19527,1918
19531,1915
19535,1904
19539,1915
19543,1907
19547,1914
19551,1909
19555,1919
19559,1915
19563,1920
19567,1918
19571,1923
19575,1927
19579,1915
19583,1911
19587,1939
19591,1936
19595,1937
19599,1925
19603,1939
19607,1941
19611,1945
19615,1923
19619,1935
19623,1951
19627,1958
19631,1952
19635,1952
19639,1966
19643,1958
19647,1947
19651,1943
19655,1951
19659,1966
19663,1947
19667,1955
19671,1959
19675,1967
19679,1958
19683,1958
19687,1967
19691,1983
19695,1968
19699,1963
19703,1968
19707,1979
19711,1981
19715,1958
19719,1966
19723,1982
19727,1987
19731,1980
19735,1979
19739,1995
19743,1998
19747,1984
19751,1984
19755,1984
19759,1986
19763,1986
19767,1983
19771,1990
19775,1987
19779,1996
19783,1995
19787,2019
19791,2041
19795,2039
19799,2047
19803,2062
19807,2074
19811,2061
19815,2033
19819,2034
19823,2033
19827,2025
19831,2000
19835,1989
19839,1995
19843,1995
19847,1987
19851,1985
19855,1999
19859,1994
19863,1994
19867,1989
19871,2000
19875,2000
19879,1993
19883,1985
19887,2000
19891,2011
19895,2004
19899,1991
19903,1962
19907,1893
19911,1818
19915,1841
19919,2085
19923,2515
19927,3099
19931,3815
19935,3988
19939,3434
19943,2837
19947,2323
19951,2066
19955,1993
19959,1989
19963,1996
19967,1984
19971,1986
19975,1968
19979,1943
19983,1929
19987,1939
19991,1937
19995,1936
