Timestamp,ECG Data
4,1885
7,1887
11,1898
15,1895
19,1883
23,1863
27,1890
31,1902
35,1886
39,1872
43,1897
47,1923
51,1925
55,1904
59,1903
63,1914
67,1919
71,1922
75,1913
79,1920
83,1920
87,1907
91,1904
95,1918
99,1936
103,1936
107,1927
111,1927
115,1923
119,1909
123,1907
127,1925
131,1954
135,1965
139,1970
143,1982
147,1995
151,1981
155,1954
159,1957
163,1981
167,1943
171,1913
175,1919
179,1925
183,1933
187,1917
191,1909
195,1919
199,1935
203,1933
207,1923
211,1925
215,1937
219,1935
223,1925
227,1929
231,1934
235,1906
239,1858
243,1842
247,1911
251,2082
255,2320
259,2655
263,2768
267,2579
271,2276
275,2001
279,1890
283,1878
287,1879
291,1900
295,1936
299,1953
303,1936
307,1920
311,1920
315,1931
319,1925
323,1907
327,1918
331,1929
335,1935
339,1917
343,1927
347,1943
351,1954
355,1941
359,1942
363,1966
367,1974
371,1965
375,1954
379,1968
383,1979
387,1974
391,1970
395,1991
399,2000
403,2000
407,1995
411,2000
415,2019
419,2022
423,2018
427,2026
431,2033
435,2043
439,2047
443,2059
447,2081
451,2075
455,2075
459,2081
463,2090
467,2096
471,2097
475,2095
479,2107
483,2121
487,2120
491,2114
495,2126
499,2128
503,2121
507,2108
511,2100
515,2081
519,2047
523,2015
527,1989
531,1969
535,1937
539,1907
543,1904
547,1903
551,1895
555,1877
559,1873
563,1888
567,1887
571,1882
575,1887
579,1883
583,1895
587,1879
591,1886
595,1893
599,1918
603,1919
607,1921
611,1917
615,1919
619,1918
623,1913
627,1919
631,1925
635,1921
639,1919
643,1916
647,1924
651,1919
655,1906
659,1906
663,1909
667,1914
671,1905
675,1904
679,1911
683,1915
687,1908
691,1897
695,1904
699,1914
703,1908
707,1903
711,1906
715,1920
719,1915
723,1904
727,1906
731,1921
735,1931
739,1939
743,1968
747,1979
751,1975
755,1963
759,1950
763,1939
767,1937
771,1927
775,1914
779,1917
783,1915
787,1904
791,1904
795,1909
799,1917
803,1919
807,1917
811,1919
815,1918
819,1907
823,1904
827,1911
831,1918
835,1907
839,1851
843,1777
847,1754
851,1904
855,2288
859,2807
863,3446
867,3773
871,3391
875,2871
879,2378
883,2055
887,1934
891,1920
895,1922
899,1920
903,1899
907,1872
911,1865
915,1861
919,1856
923,1847
927,1847
931,1856
935,1861
939,1856
943,1858
947,1870
951,1878
955,1879
959,1886
963,1888
967,1894
971,1889
975,1891
979,1904
983,1907
987,1906
991,1906
995,1908
999,1920
1003,1919
1007,1918
1011,1926
1015,1936
1019,1936
1023,1931
1027,1935
1031,1938
1035,1942
1039,1947
1043,1957
1047,1975
1051,1983
1055,1984
1059,1989
1063,2007
1067,2018
1071,2017
1075,2020
1079,2037
1083,2058
1087,2042
1091,2091
1095,2069
1099,2084
1103,2082
1107,2083
1111,2085
1115,2109
1119,2078
1123,2042
1127,2013
1131,1995
1135,1946
1139,1917
1143,1909
1147,1917
1151,1885
1155,1858
1159,1843
1163,1843
1167,1840
1171,1834
1175,1831
1179,1836
1183,1839
1187,1840
1191,1832
1195,1840
1199,1846
1203,1841
1207,1831
1211,1839
1215,1845
1219,1844
1223,1837
1227,1840
1231,1844
1235,1843
1239,1841
1243,1841
1247,1848
1251,1846
1255,1842
1259,1842
1263,1845
1267,1854
1271,1849
1275,1847
1279,1855
1283,1861
1287,1863
1291,1848
1295,1861
1299,1867
1303,1856
1307,1863
1311,1861
1315,1875
1319,1867
1323,1865
1327,1870
1331,1877
1335,1877
1339,1872
1343,1872
1347,1877
1351,1883
1355,1877
1359,1875
1363,1882
1367,1894
1371,1895
1375,1904
1379,1933
1383,1968
1387,1975
1391,1965
1395,1951
1399,1938
1403,1933
1407,1920
1411,1905
1415,1904
1419,1892
1423,1883
1427,1888
1431,1904
1435,1904
1439,1890
1443,1902
1447,1904
1451,1906
1455,1904
1459,1903
1463,1907
1467,1918
1471,1914
1475,1893
1479,1833
1483,1731
1487,1700
1491,1907
1495,2437
1499,3142
1503,4095
1507,4095
1511,4095
1515,3249
1519,2546
1523,2112
1527,1949
1531,1930
1535,1931
1539,1905
1543,1884
1547,1869
1551,1863
1555,1841
1559,1830
1563,1838
1567,1839
1571,1836
1575,1833
1579,1849
1583,1847
1587,1847
1591,1845
1595,1861
1599,1872
1603,1874
1607,1871
1611,1877
1615,1890
1619,1894
1623,1882
1627,1886
1631,1899
1635,1898
1639,1895
1643,1903
1647,1911
1651,1921
1655,1917
1659,1920
1663,1935
1667,1939
1671,1949
1675,1951
1679,1968
1683,1982
1687,1982
1691,1977
1695,1998
1699,2012
1703,2022
1707,2021
1711,2035
1715,2064
1719,2073
1723,2077
1727,2087
1731,2107
1735,2112
1739,2109
1743,2113
1747,2130
1751,2134
1755,2133
1759,2118
1763,2110
1767,2087
1771,2041
1775,2001
1779,1978
1783,1953
1787,1927
1791,1904
1795,1890
1799,1881
1803,1872
1807,1862
1811,1857
1815,1870
1819,1866
1823,1859
1827,1864
1831,1872
1835,1867
1839,1858
1843,1861
1847,1870
1851,1872
1855,1867
1859,1863
1863,1872
1867,1875
1871,1872
1875,1872
1879,1879
1883,1878
1887,1875
1891,1877
1895,1890
1899,1893
1903,1881
1907,1872
1911,1878
1915,1888
1919,1888
1923,1884
1927,1897
1931,1903
1935,1899
1939,1897
1943,1903
1947,1909
1951,1904
1955,1903
1959,1904
1963,1905
1967,1915
1971,1910
1975,1904
1979,1914
1983,1926
1987,1916
1991,1907
1995,1911
1999,1925
2003,1920
2007,1915
2011,1916
2015,1920
2019,1926
2023,1918
2027,1933
2031,1953
2035,1937
2039,1924
2043,1926
2047,1936
2051,1936
2055,1927
2059,1923
2063,1936
2067,1942
2071,1931
2075,1953
2079,1947
2083,1952
2087,1932
2091,1931
2095,1939
2099,1953
2103,1948
2107,1934
2111,1936
2115,1936
2119,1963
2123,1974
2127,1995
2131,2028
2135,2032
2139,2021
2143,2008
2147,2006
2151,1994
2155,1977
2159,1955
2163,1950
2167,1938
2171,1939
2175,1939
2179,1958
2183,1957
2187,1953
2191,1941
2195,1942
2199,1950
2203,1946
2207,1942
2211,1954
2215,1964
2219,1961
2223,1916
2227,1813
2231,1719
2235,1770
2239,2157
2243,2854
2247,3959
2251,4095
2255,4095
2259,4095
2263,3623
2267,2705
2271,2172
2275,1957
2279,1936
2283,1939
2287,1927
2291,1895
2295,1875
2299,1866
2303,1850
2307,1833
2311,1838
2315,1840
2319,1840
2323,1830
2327,1837
2331,1847
2335,1852
2339,1846
2343,1845
2347,1855
2351,1861
2355,1857
2359,1860
2363,1872
2367,1879
2371,1879
2375,1879
2379,1886
2383,1899
2387,1898
2391,1897
2395,1907
2399,1920
2403,1920
2407,1917
2411,1932
2415,1945
2419,1948
2423,1947
2427,1955
2431,1969
2435,1980
2439,1975
2443,1985
2447,2002
2451,2016
2455,2023
2459,2036
2463,2058
2467,2068
2471,2074
2475,2075
2479,2093
2483,2105
2487,2113
2491,2119
2495,2129
2499,2141
2503,2142
2507,2128
2511,2123
2515,2112
2519,2079
2523,2037
2527,2000
2531,1981
2535,1949
2539,1914
2543,1894
2547,1886
2551,1867
2555,1855
2559,1850
2563,1853
2567,1852
2571,1845
2575,1846
2579,1853
2583,1862
2587,1858
2591,1852
2595,1859
2599,1862
2603,1858
2607,1858
2611,1865
2615,1875
2619,1873
2623,1871
2627,1872
2631,1872
2635,1872
2639,1866
2643,1863
2647,1871
2651,1877
2655,1873
2659,1875
2663,1885
2667,1889
2671,1877
2675,1873
2679,1885
2683,1899
2687,1890
2691,1882
2695,1886
2699,1889
2703,1893
2707,1881
2711,1897
2715,1899
2719,1897
2723,1893
2727,1899
2731,1904
2735,1905
2739,1898
2743,1899
2747,1905
2751,1915
2755,1903
2759,1905
2763,1906
2767,1911
2771,1905
2775,1915
2779,1918
2783,1925
2787,1919
2791,1906
2795,1919
2799,1925
2803,1919
2807,1907
2811,1920
2815,1933
2819,1923
2823,1922
2827,1923
2831,1930
2835,1926
2839,1919
2843,1923
2847,1927
2851,1930
2855,1926
2859,1920
2863,1936
2867,1939
2871,1936
2875,1934
2879,1936
2883,1938
2887,1936
2891,1936
2895,1938
2899,1936
2903,1932
2907,1935
2911,1937
2915,1943
2919,1931
2923,1926
2927,1951
2931,1979
2935,1994
2939,2011
2943,2017
2947,2023
2951,2021
2955,2000
2959,1986
2963,1993
2967,1964
2971,1966
2975,1936
2979,1961
2983,1967
2987,1975
2991,1919
2995,1953
2999,1965
3003,1954
3007,1983
3011,1977
3015,1967
3019,1958
3023,1957
3027,1957
3031,1945
3035,1870
3039,1737
3043,1696
3047,1919
3051,2510
3055,3376
3059,4095
3063,4095
3067,4095
3071,4095
3075,3123
3079,2391
3083,2032
3087,1927
3091,1918
3095,1922
3099,1907
3103,1873
3107,1843
3111,1834
3115,1835
3119,1826
3123,1814
3127,1815
3131,1827
3135,1831
3139,1827
3143,1837
3147,1841
3151,1854
3155,1846
3159,1841
3163,1856
3167,1861
3171,1855
3175,1857
3179,1870
3183,1875
3187,1872
3191,1875
3195,1883
3199,1899
3203,1901
3207,1899
3211,1909
3215,1921
3219,1930
3223,1930
3227,1939
3231,1949
3235,1952
3239,1954
3243,1963
3247,1981
3251,1986
3255,1990
3259,1997
3263,2017
3267,2035
3271,2038
3275,2046
3279,2070
3283,2086
3287,2081
3291,2089
3295,2099
3299,2117
3303,2126
3307,2126
3311,2139
3315,2145
3319,2138
3323,2117
3327,2096
3331,2074
3335,2033
3339,2000
3343,1963
3347,1941
3351,1918
3355,1894
3359,1871
3363,1863
3367,1855
3371,1849
3375,1840
3379,1843
3383,1842
3387,1840
3391,1839
3395,1843
3399,1849
3403,1846
3407,1840
3411,1850
3415,1856
3419,1857
3423,1850
3427,1856
3431,1857
3435,1870
3439,1859
3443,1862
3447,1872
3451,1876
3455,1872
3459,1865
3463,1872
3467,1874
3471,1872
3475,1871
3479,1874
3483,1881
3487,1881
3491,1874
3495,1878
3499,1885
3503,1885
3507,1879
3511,1882
3515,1895
3519,1887
3523,1883
3527,1875
3531,1883
3535,1889
3539,1883
3543,1883
3547,1891
3551,1899
3555,1897
3559,1888
3563,1893
3567,1904
3571,1903
3575,1895
3579,1895
3583,1899
3587,1897
3591,1898
3595,1908
3599,1909
3603,1905
3607,1904
3611,1906
3615,1920
3619,1918
3623,1915
3627,1914
3631,1921
3635,1925
3639,1918
3643,1911
3647,1923
3651,1929
3655,1922
3659,1923
3663,1933
3667,1935
3671,1931
3675,1923
3679,1935
3683,1936
3687,1933
3691,1927
3695,1935
3699,1943
3703,1941
3707,1935
3711,1941
3715,1950
3719,1951
3723,1937
3727,1938
3731,1940
3735,1939
3739,1942
3743,1939
3747,1950
3751,1952
3755,1938
3759,1951
3763,1984
3767,2015
3771,2026
3775,2025
3779,2042
3783,2043
3787,2031
3791,2006
3795,2004
3799,1999
3803,1987
3807,1957
3811,1953
3815,1958
3819,1961
3823,1957
3827,1952
3831,1965
3835,1968
3839,1959
3843,1957
3847,1966
3851,1969
3855,1955
3859,1957
3863,1963
3867,1910
3871,1793
3875,1693
3879,1789
3883,2249
3887,3007
3891,4095
3895,4095
3899,4095
3903,4095
3907,3454
3911,2608
3915,2126
3919,1951
3923,1918
3927,1930
3931,1923
3935,1902
3939,1866
3943,1842
3947,1841
3951,1845
3955,1838
3959,1825
3963,1827
3967,1839
3971,1840
3975,1838
3979,1842
3983,1856
3987,1841
3991,1849
3995,1856
3999,1860
4003,1853
4007,1865
4011,1869
4015,1885
4019,1885
4023,1873
4027,1886
4031,1894
4035,1904
4039,1903
4043,1897
4047,1916
4051,1929
4055,1931
4059,1935
4063,1955
4067,1962
4071,1964
4075,1967
4079,1984
4083,2000
4087,2005
4091,2002
4095,2016
4099,2035
4103,2043
4107,2046
4111,2064
4115,2081
4119,2091
4123,2096
4127,2108
4131,2123
4135,2127
4139,2130
4143,2143
4147,2150
4151,2155
4155,2134
4159,2114
4163,2096
4167,2064
4171,2019
4175,1979
4179,1951
4183,1936
4187,1897
4191,1871
4195,1858
4199,1854
4203,1845
4207,1837
4211,1838
4215,1843
4219,1842
4223,1837
4227,1843
4231,1852
4235,1849
4239,1842
4243,1845
4247,1850
4251,1851
4255,1850
4259,1853
4263,1863
4267,1866
4271,1857
4275,1856
4279,1860
4283,1872
4287,1872
4291,1869
4295,1872
4299,1881
4303,1876
4307,1873
4311,1876
4315,1887
4319,1883
4323,1872
4327,1872
4331,1877
4335,1877
4339,1881
4343,1881
4347,1890
4351,1898
4355,1891
4359,1885
4363,1893
4367,1898
4371,1891
4375,1889
4379,1899
4383,1904
4387,1902
4391,1897
4395,1901
4399,1909
4403,1904
4407,1906
4411,1908
4415,1917
4419,1915
4423,1907
4427,1909
4431,1920
4435,1921
4439,1915
4443,1917
4447,1917
4451,1915
4455,1910
4459,1910
4463,1919
4467,1923
4471,1919
4475,1913
4479,1925
4483,1929
4487,1922
4491,1923
4495,1926
4499,1936
4503,1935
4507,1927
4511,1934
4515,1943
4519,1936
4523,1935
4527,1930
4531,1939
4535,1939
4539,1935
4543,1935
4547,1938
4551,1938
4555,1938
4559,1940
4563,1949
4567,1950
4571,1937
4575,1936
4579,1945
4583,1950
4587,1948
4591,1942
4595,1936
4599,1951
4603,1968
4607,1991
4611,2010
4615,2026
4619,2032
4623,2031
4627,2031
4631,2025
4635,2003
4639,1985
4643,1975
4647,1966
4651,1951
4655,1949
4659,1942
4663,1953
4667,1960
4671,1952
4675,1953
4679,1959
4683,1963
4687,1957
4691,1951
4695,1959
4699,1967
4703,1958
4707,1904
4711,1799
4715,1703
4719,1761
4723,2172
4727,2907
4731,4095
4735,4095
4739,4095
4743,4095
4747,3514
4751,2639
4755,2123
4759,1938
4763,1925
4767,1926
4771,1907
4775,1877
4779,1859
4783,1849
4787,1829
4791,1811
4795,1813
4799,1829
4803,1822
4807,1815
4811,1825
4815,1835
4819,1834
4823,1836
4827,1838
4831,1856
4835,1859
4839,1850
4843,1871
4847,1873
4851,1883
4855,1901
4859,1870
4863,1894
4867,1879
4871,1886
4875,1883
4879,1904
4883,1932
4887,1913
4891,1936
4895,1936
4899,1945
4903,1955
4907,1950
4911,1965
4915,1981
4919,1986
4923,2006
4927,1999
4931,2013
4935,2032
4939,2032
4943,2043
4947,2071
4951,2080
4955,2083
4959,2092
4963,2105
4967,2119
4971,2128
4975,2131
4979,2144
4983,2158
4987,2161
4991,2154
4995,2145
4999,2128
5003,2099
5007,2064
5011,2026
5015,1997
5019,1952
5023,1905
5027,1887
5031,1875
5035,1857
5039,1841
5043,1839
5047,1839
5051,1841
5055,1833
5059,1835
5063,1840
5067,1841
5071,1840
5075,1839
5079,1840
5083,1847
5087,1847
5091,1841
5095,1845
5099,1856
5103,1853
5107,1843
5111,1853
5115,1857
5119,1857
5123,1851
5127,1856
5131,1872
5135,1872
5139,1865
5143,1863
5147,1877
5151,1873
5155,1871
5159,1865
5163,1871
5167,1865
5171,1863
5175,1866
5179,1868
5183,1875
5187,1873
5191,1866
5195,1872
5199,1882
5203,1878
5207,1871
5211,1873
5215,1882
5219,1873
5223,1872
5227,1877
5231,1887
5235,1891
5239,1885
5243,1883
5247,1890
5251,1901
5255,1885
5259,1886
5263,1891
5267,1900
5271,1890
5275,1889
5279,1889
5283,1904
5287,1903
5291,1899
5295,1903
5299,1910
5303,1904
5307,1904
5311,1908
5315,1914
5319,1917
5323,1904
5327,1904
5331,1907
5335,1915
5339,1904
5343,1904
5347,1919
5351,1925
5355,1919
5359,1914
5363,1925
5367,1921
5371,1921
5375,1911
5379,1915
5383,1922
5387,1921
5391,1919
5395,1927
5399,1928
5403,1930
5407,1926
5411,1931
5415,1936
5419,1942
5423,1934
5427,1935
5431,1940
5435,1946
5439,1941
5443,1946
5447,1947
5451,1942
5455,1936
5459,1962
5463,1998
5467,2018
5471,2018
5475,2015
5479,2023
5483,2025
5487,2007
5491,1989
5495,1982
5499,1973
5503,1954
5507,1934
5511,1933
5515,1939
5519,1937
5523,1936
5527,1936
5531,1946
5535,1946
5539,1944
5543,1943
5547,1955
5551,1951
5555,1946
5559,1941
5563,1899
5567,1787
5571,1685
5575,1776
5579,2255
5583,3055
5587,4095
5591,4095
5595,4095
5599,4095
5603,3467
5607,2591
5611,2099
5615,1938
5619,1923
5623,1915
5627,1904
5631,1881
5635,1858
5639,1835
5643,1821
5647,1821
5651,1819
5655,1808
5659,1808
5663,1820
5667,1826
5671,1824
5675,1827
5679,1836
5683,1840
5687,1839
5691,1837
5695,1853
5699,1867
5703,1866
5707,1856
5711,1861
5715,1874
5719,1877
5723,1872
5727,1875
5731,1890
5735,1904
5739,1904
5743,1904
5747,1920
5751,1927
5755,1928
5759,1936
5763,1950
5767,1962
5771,1979
5775,1971
5779,1985
5783,1983
5787,2005
5791,2032
5795,2036
5799,2064
5803,2070
5807,2044
5811,2069
5815,2064
5819,2103
5823,2110
5827,2114
5831,2138
5835,2152
5839,2147
5843,2147
5847,2156
5851,2140
5855,2113
5859,2086
5863,2057
5867,2017
5871,1973
5875,1933
5879,1906
5883,1882
5887,1861
5891,1835
5895,1826
5899,1824
5903,1815
5907,1813
5911,1822
5915,1822
5919,1825
5923,1815
5927,1819
5931,1831
5935,1840
5939,1839
5943,1830
5947,1841
5951,1847
5955,1846
5959,1851
5963,1851
5967,1857
5971,1854
5975,1846
5979,1855
5983,1867
5987,1859
5991,1856
5995,1862
5999,1870
6003,1859
6007,1861
6011,1857
6015,1863
6019,1865
6023,1859
6027,1863
6031,1872
6035,1874
6039,1872
6043,1869
6047,1871
6051,1874
6055,1872
6059,1872
6063,1875
6067,1879
6071,1874
6075,1876
6079,1878
6083,1891
6087,1874
6091,1873
6095,1881
6099,1891
6103,1895
6107,1890
6111,1888
6115,1895
6119,1891
6123,1887
6127,1891
6131,1903
6135,1907
6139,1898
6143,1895
6147,1899
6151,1906
6155,1904
6159,1905
6163,1910
6167,1915
6171,1906
6175,1903
6179,1909
6183,1919
6187,1917
6191,1905
6195,1907
6199,1923
6203,1927
6207,1917
6211,1920
6215,1920
6219,1922
6223,1919
6227,1925
6231,1931
6235,1929
6239,1920
6243,1923
6247,1936
6251,1939
6255,1936
6259,1934
6263,1936
6267,1943
6271,1935
6275,1933
6279,1936
6283,1947
6287,1948
6291,1945
6295,1950
6299,1952
6303,1941
6307,1945
6311,1975
6315,2010
6319,2019
6323,2014
6327,2031
6331,2042
6335,2034
6339,2014
6343,2002
6347,2000
6351,1991
6355,1967
6359,1953
6363,1955
6367,1966
6371,1959
6375,1954
6379,1952
6383,1962
6387,1964
6391,1956
6395,1963
6399,1968
6403,1966
6407,1957
6411,1950
6415,1889
6419,1766
6423,1681
6427,1827
6431,2373
6435,3223
6439,4095
6443,4095
6447,4095
6451,4095
6455,3281
6459,2480
6463,2066
6467,1943
6471,1926
6475,1927
6479,1915
6483,1901
6487,1871
6491,1844
6495,1839
6499,1830
6503,1829
6507,1824
6511,1832
6515,1841
6519,1843
6523,1838
6527,1842
6531,1856
6535,1861
6539,1857
6543,1855
6547,1863
6551,1871
6555,1872
6559,1874
6563,1881
6567,1893
6571,1886
6575,1895
6579,1904
6583,1910
6587,1911
6591,1910
6595,1920
6599,1933
6603,1940
6607,1942
6611,1949
6615,1965
6619,1969
6623,1969
6627,1979
6631,2000
6635,2015
6639,2015
6643,2032
6647,2060
6651,2071
6655,2071
6659,2080
6663,2107
6667,2125
6671,2126
6675,2128
6679,2141
6683,2156
6687,2162
6691,2169
6695,2176
6699,2171
6703,2151
6707,2116
6711,2082
6715,2047
6719,2003
6723,1963
6727,1927
6731,1901
6735,1872
6739,1835
6743,1818
6747,1810
6751,1779
6755,1787
6759,1804
6763,1808
6767,1823
6771,1817
6775,1808
6779,1819
6783,1836
6787,1830
6791,1825
6795,1830
6799,1844
6803,1841
6807,1840
6811,1845
6815,1851
6819,1851
6823,1840
6827,1843
6831,1855
6835,1866
6839,1857
6843,1851
6847,1856
6851,1858
6855,1851
6859,1851
6863,1865
6867,1875
6871,1858
6875,1852
6879,1859
6883,1872
6887,1862
6891,1862
6895,1870
6899,1873
6903,1874
6907,1872
6911,1870
6915,1878
6919,1886
6923,1874
6927,1876
6931,1883
6935,1884
6939,1872
6943,1872
6947,1882
6951,1886
6955,1878
6959,1877
6963,1887
6967,1891
6971,1881
6975,1886
6979,1890
6983,1904
6987,1902
6991,1889
6995,1895
6999,1904
7003,1902
7007,1893
7011,1902
7015,1906
7019,1906
7023,1901
7027,1904
7031,1911
7035,1911
7039,1904
7043,1899
7047,1914
7051,1919
7055,1918
7059,1916
7063,1923
7067,1921
7071,1921
7075,1915
7079,1923
7083,1933
7087,1923
7091,1918
7095,1921
7099,1925
7103,1929
7107,1922
7111,1931
7115,1942
7119,1941
7123,1935
7127,1936
7131,1939
7135,1945
7139,1933
7143,1936
7147,1946
7151,1947
7155,1938
7159,1935
7163,1961
7167,1991
7171,2011
7175,2006
7179,2021
7183,2032
7187,2029
7191,2023
7195,2007
7199,2000
7203,1986
7207,1971
7211,1954
7215,1954
7219,1955
7223,1950
7227,1950
7231,1963
7235,1966
7239,1953
7243,1941
7247,1958
7251,1968
7255,1961
7259,1963
7263,1968
7267,1957
7271,1872
7275,1750
7279,1706
7283,1886
7287,2416
7291,3229
7295,4095
7299,4095
7303,4095
7307,3735
7311,2805
7315,2240
7319,2001
7323,1946
7327,1943
7331,1942
7335,1926
7339,1898
7343,1871
7347,1859
7351,1849
7355,1840
7359,1842
7363,1854
7367,1854
7371,1851
7375,1845
7379,1854
7383,1872
7387,1870
7391,1871
7395,1874
7399,1890
7403,1894
7407,1882
7411,1890
7415,1903
7419,1902
7423,1901
7427,1904
7431,1927
7435,1937
7439,1934
7443,1936
7447,1949
7451,1962
7455,1967
7459,1968
7463,1984
7467,1998
7471,2001
7475,2003
7479,2027
7483,2038
7487,2046
7491,2047
7495,2068
7499,2083
7503,2094
7507,2096
7511,2112
7515,2128
7519,2137
7523,2135
7527,2144
7531,2160
7535,2174
7539,2171
7543,2177
7547,2192
7551,2194
7555,2177
7559,2151
7563,2125
7567,2094
7571,2038
7575,1994
7579,1967
7583,1935
7587,1895
7591,1857
7595,1842
7599,1839
7603,1826
7607,1810
7611,1813
7615,1821
7619,1825
7623,1814
7627,1819
7631,1834
7635,1834
7639,1808
7643,1837
7647,1815
7651,1839
7655,1845
7659,1845
7663,1855
7667,1826
7671,1843
7675,1854
7679,1856
7683,1878
7687,1867
7691,1868
7695,1872
7699,1877
7703,1870
7707,1866
7711,1872
7715,1883
7719,1882
7723,1863
7727,1872
7731,1872
7735,1875
7739,1866
7743,1862
7747,1876
7751,1882
7755,1871
7759,1863
7763,1872
7767,1873
7771,1872
7775,1872
7779,1874
7783,1883
7787,1881
7791,1872
7795,1872
7799,1882
7803,1890
7807,1882
7811,1883
7815,1892
7819,1888
7823,1886
7827,1882
7831,1893
7835,1901
7839,1897
7843,1897
7847,1905
7851,1909
7855,1907
7859,1905
7863,1914
7867,1915
7871,1915
7875,1907
7879,1915
7883,1921
7887,1919
7891,1914
7895,1920
7899,1925
7903,1920
7907,1914
7911,1922
7915,1930
7919,1923
7923,1920
7927,1919
7931,1931
7935,1930
7939,1921
7943,1922
7947,1933
7951,1939
7955,1930
7959,1927
7963,1936
7967,1936
7971,1936
7975,1931
7979,1937
7983,1942
7987,1936
7991,1926
7995,1928
7999,1938
8003,1938
8007,1935
8011,1942
8015,1968
8019,1989
8023,2000
8027,2001
8031,2026
8035,2032
8039,2014
8043,2000
8047,1998
8051,1987
8055,1970
8059,1955
8063,1948
8067,1939
8071,1931
8075,1936
8079,1938
8083,1951
8087,1946
8091,1936
8095,1946
8099,1954
8103,1954
8107,1946
8111,1951
8115,1953
8119,1927
8123,1834
8127,1721
8131,1733
8135,2010
8139,2618
8143,3545
8147,4095
8151,4095
8155,4095
8159,3408
8163,2597
8167,2133
8171,1970
8175,1949
8179,1955
8183,1943
8187,1921
8191,1888
8195,1872
8199,1863
8203,1853
8207,1839
8211,1839
8215,1847
8219,1843
8223,1839
8227,1845
8231,1867
8235,1863
8239,1862
8243,1863
8247,1875
8251,1890
8255,1879
8259,1878
8263,1890
8267,1899
8271,1903
8275,1902
8279,1922
8283,1936
8287,1936
8291,1937
8295,1952
8299,1970
8303,1968
8307,1964
8311,1973
8315,1987
8319,2000
8323,2003
8327,2019
8331,2039
8335,2057
8339,2059
8343,2065
8347,2085
8351,2107
8355,2114
8359,2122
8363,2140
8367,2158
8371,2160
8375,2172
8379,2181
8383,2204
8387,2212
8391,2208
8395,2223
8399,2234
8403,2229
8407,2197
8411,2171
8415,2147
8419,2099
8423,2038
8427,1999
8431,1965
8435,1929
8439,1893
8443,1862
8447,1845
8451,1845
8455,1823
8459,1818
8463,1823
8467,1826
8471,1819
8475,1815
8479,1817
8483,1830
8487,1827
8491,1819
8495,1829
8499,1841
8503,1851
8507,1844
8511,1841
8515,1857
8519,1861
8523,1856
8527,1856
8531,1869
8535,1873
8539,1865
8543,1854
8547,1869
8551,1871
8555,1863
8559,1862
8563,1866
8567,1874
8571,1866
8575,1858
8579,1862
8583,1867
8587,1869
8591,1856
8595,1862
8599,1872
8603,1872
8607,1869
8611,1866
8615,1874
8619,1881
8623,1840
8627,1865
8631,1884
8635,1921
8639,1872
8643,1868
8647,1875
8651,1883
8655,1873
8659,1872
8663,1882
8667,1889
8671,1863
8675,1874
8679,1877
8683,1891
8687,1894
8691,1879
8695,1883
8699,1897
8703,1893
8707,1887
8711,1891
8715,1903
8719,1904
8723,1901
8727,1904
8731,1918
8735,1918
8739,1904
8743,1904
8747,1910
8751,1921
8755,1911
8759,1902
8763,1908
8767,1919
8771,1918
8775,1913
8779,1920
8783,1929
8787,1926
8791,1916
8795,1919
8799,1927
8803,1923
8807,1916
8811,1925
8815,1936
8819,1938
8823,1936
8827,1936
8831,1946
8835,1951
8839,1939
8843,1941
8847,1943
8851,1951
8855,1941
8859,1936
8863,1942
8867,1953
8871,1945
8875,1936
8879,1942
8883,1937
8887,1947
8891,1967
8895,1995
8899,2011
8903,2015
8907,2023
8911,2033
8915,2037
8919,2026
8923,2002
8927,1995
8931,1983
8935,1968
8939,1951
8943,1947
8947,1959
8951,1959
8955,1954
8959,1949
8963,1957
8967,1968
8971,1958
8975,1955
8979,1961
8983,1968
8987,1972
8991,1959
8995,1927
8999,1828
9003,1696
9007,1687
9011,2016
9015,2737
9019,3862
9023,4095
9027,4095
9031,4095
9035,4095
9039,3078
9043,2351
9047,2006
9051,1927
9055,1920
9059,1914
9063,1899
9067,1872
9071,1842
9075,1822
9079,1822
9083,1824
9087,1813
9091,1811
9095,1813
9099,1826
9103,1827
9107,1829
9111,1835
9115,1844
9119,1844
9123,1837
9127,1841
9131,1856
9135,1854
9139,1859
9143,1861
9147,1872
9151,1886
9155,1879
9159,1874
9163,1895
9167,1904
9171,1906
9175,1905
9179,1922
9183,1937
9187,1936
9191,1934
9195,1951
9199,1967
9203,1973
9207,1981
9211,2000
9215,2022
9219,2042
9223,2039
9227,2065
9231,2093
9235,2112
9239,2117
9243,2128
9247,2149
9251,2167
9255,2178
9259,2185
9263,2206
9267,2222
9271,2225
9275,2220
9279,2223
9283,2209
9287,2174
9291,2128
9295,2095
9299,2057
9303,2005
9307,1954
9311,1907
9315,1883
9319,1859
9323,1839
9327,1822
9331,1827
9335,1821
9339,1808
9343,1801
9347,1808
9351,1809
9355,1805
9359,1808
9363,1814
9367,1829
9371,1824
9375,1813
9379,1827
9383,1833
9387,1836
9391,1818
9395,1833
9399,1840
9403,1838
9407,1828
9411,1840
9415,1853
9419,1843
9423,1838
9427,1842
9431,1855
9435,1861
9439,1856
9443,1856
9447,1861
9451,1865
9455,1859
9459,1856
9463,1859
9467,1863
9471,1866
9475,1865
9479,1875
9483,1883
9487,1878
9491,1863
9495,1872
9499,1882
9503,1876
9507,1875
9511,1872
9515,1899
9519,1886
9523,1872
9527,1872
9531,1873
9535,1881
9539,1875
9543,1913
9547,1895
9551,1895
9555,1879
9559,1879
9563,1885
9567,1895
9571,1888
9575,1877
9579,1887
9583,1898
9587,1888
9591,1883
9595,1888
9599,1901
9603,1888
9607,1886
9611,1886
9615,1895
9619,1895
9623,1885
9627,1882
9631,1901
9635,1904
9639,1904
9643,1903
9647,1918
9651,1927
9655,1920
9659,1919
9663,1924
9667,1929
9671,1915
9675,1910
9679,1921
9683,1930
9687,1918
9691,1914
9695,1919
9699,1927
9703,1921
9707,1920
9711,1922
9715,1936
9719,1938
9723,1929
9727,1933
9731,1941
9735,1939
9739,1936
9743,1932
9747,1937
9751,1946
9755,1939
9759,1938
9763,1941
9767,1939
9771,1933
9775,1934
9779,1950
9783,1952
9787,1942
9791,1936
9795,1949
9799,1994
9803,2013
9807,2012
9811,2022
9815,2032
9819,2032
9823,2022
9827,2010
9831,2003
9835,1995
9839,1969
9843,1943
9847,1938
9851,1949
9855,1943
9859,1941
9863,1951
9867,1964
9871,1952
9875,1946
9879,1944
9883,1950
9887,1941
9891,1937
9895,1950
9899,1955
9903,1931
9907,1832
9911,1702
9915,1657
9919,1892
9923,2512
9927,3483
9931,4095
9935,4095
9939,4095
9943,4095
9947,3372
9951,2527
9955,2055
9959,1904
9963,1904
9967,1919
9971,1899
9975,1855
9979,1839
9983,1824
9987,1808
9991,1795
9995,1799
9999,1815
10003,1808
10007,1808
10011,1813
10015,1829
10019,1835
10023,1824
10027,1827
10031,1841
10035,1840
10039,1838
10043,1840
10047,1850
10051,1867
10055,1870
10059,1871
10063,1880
10067,1887
10071,1882
10075,1882
10079,1899
10083,1904
10087,1909
10091,1909
10095,1929
10099,1940
10103,1958
10107,1955
10111,1968
10115,1991
10119,2004
10123,2006
10127,2028
10131,2057
10135,2077
10139,2083
10143,2102
10147,2127
10151,2143
10155,2153
10159,2165
10163,2191
10167,2205
10171,2207
10175,2213
10179,2230
10183,2247
10187,2241
10191,2217
10195,2192
10199,2165
10203,2115
10207,2059
10211,2011
10215,1975
10219,1936
10223,1900
10227,1869
10231,1853
10235,1827
10239,1806
10243,1806
10247,1813
10251,1809
10255,1799
10259,1789
10263,1795
10267,1805
10271,1801
10275,1795
10279,1806
10283,1817
10287,1811
10291,1808
10295,1820
10299,1827
10303,1827
10307,1814
10311,1818
10315,1828
10319,1840
10323,1831
10327,1838
10331,1840
10335,1851
10339,1831
10343,1837
10347,1850
10351,1854
10355,1846
10359,1843
10363,1855
10367,1856
10371,1856
10375,1841
10379,1857
10383,1868
10387,1862
10391,1857
10395,1865
10399,1872
10403,1867
10407,1865
10411,1867
10415,1874
10419,1872
10423,1861
10427,1870
10431,1872
10435,1875
10439,1869
10443,1869
10447,1882
10451,1883
10455,1891
10459,1857
10463,1879
10467,1892
10471,1876
10475,1868
10479,1882
10483,1890
10487,1851
10491,1872
10495,1898
10499,1897
10503,1904
10507,1923
10511,1901
10515,1910
10519,1905
10523,1904
10527,1904
10531,1917
10535,1915
10539,1905
10543,1909
10547,1921
10551,1919
10555,1909
10559,1905
10563,1909
10567,1922
10571,1917
10575,1916
10579,1927
10583,1935
10587,1923
10591,1919
10595,1922
10599,1925
10603,1920
10607,1909
10611,1915
10615,1930
10619,1933
10623,1921
10627,1925
10631,1936
10635,1937
10639,1925
10643,1926
10647,1941
10651,1949
10655,1943
10659,1939
10663,1945
10667,1951
10671,1946
10675,1939
10679,1945
10683,1953
10687,1952
10691,1941
10695,1954
10699,1961
10703,1953
10707,1948
10711,1951
10715,1962
10719,1959
10723,1950
10727,1939
10731,1959
10735,1975
10739,1994
10743,2014
10747,2032
10751,2039
10755,2035
10759,2032
10763,2033
10767,2015
10771,2000
10775,1994
10779,1986
10783,1969
10787,1957
10791,1953
10795,1968
10799,1971
10803,1962
10807,1954
10811,1959
10815,1969
10819,1967
10823,1949
10827,1954
10831,1963
10835,1968
10839,1967
10843,1963
10847,1937
10851,1835
10855,1707
10859,1680
10863,1965
10867,2617
10871,3583
10875,4095
10879,4095
10883,4095
10887,3983
10891,2938
10895,2301
10899,2021
10903,1949
10907,1935
10911,1934
10915,1926
10919,1899
10923,1864
10927,1847
10931,1844
10935,1839
10939,1835
10943,1839
10947,1850
10951,1856
10955,1851
10959,1847
10963,1862
10967,1871
10971,1865
10975,1865
10979,1869
10983,1873
10987,1878
10991,1874
10995,1894
10999,1905
11003,1904
11007,1904
11011,1911
11015,1923
11019,1933
11023,1931
11027,1940
11031,1958
11035,1965
11039,1959
11043,1972
11047,1987
11051,2001
11055,2001
11059,2015
11063,2037
11067,2056
11071,2065
11075,2074
11079,2101
11083,2126
11087,2143
11091,2157
11095,2177
11099,2193
11103,2196
11107,2207
11111,2224
11115,2245
11119,2249
11123,2250
11127,2261
11131,2273
11135,2255
11139,2218
11143,2175
11147,2138
11151,2095
11155,2033
11159,1984
11163,1946
11167,1909
11171,1872
11175,1850
11179,1840
11183,1840
11187,1824
11191,1809
11195,1808
11199,1821
11203,1812
11207,1809
11211,1812
11215,1824
11219,1824
11223,1811
11227,1818
11231,1838
11235,1839
11239,1837
11243,1839
11247,1853
11251,1850
11255,1850
11259,1841
11263,1857
11267,1867
11271,1862
11275,1859
11279,1872
11283,1873
11287,1872
11291,1872
11295,1877
11299,1887
11303,1881
11307,1871
11311,1877
11315,1886
11319,1879
11323,1873
11327,1876
11331,1889
11335,1888
11339,1872
11343,1872
11347,1878
11351,1878
11355,1874
11359,1872
11363,1889
11367,1889
11371,1877
11375,1869
11379,1871
11383,1881
11387,1872
11391,1875
11395,1876
11399,1898
11403,1887
11407,1874
11411,1892
11415,1895
11419,1894
11423,1873
11427,1878
11431,1901
11435,1895
11439,1887
11443,1887
11447,1899
11451,1899
11455,1894
11459,1895
11463,1906
11467,1910
11471,1899
11475,1894
11479,1904
11483,1910
11487,1904
11491,1903
11495,1909
11499,1911
11503,1905
11507,1905
11511,1914
11515,1919
11519,1915
11523,1902
11527,1904
11531,1920
11535,1930
11539,1914
11543,1909
11547,1925
11551,1924
11555,1918
11559,1910
11563,1930
11567,1931
11571,1925
11575,1922
11579,1931
11583,1937
11587,1929
11591,1927
11595,1936
11599,1947
11603,1941
11607,1932
11611,1937
11615,1951
11619,1939
11623,1929
11627,1936
11631,1950
11635,1951
11639,1943
11643,1937
11647,1950
11651,1943
11655,1939
11659,1947
11663,1951
11667,1947
11671,1941
11675,1936
11679,1951
11683,1957
11687,1979
11691,1997
11695,2012
11699,2021
11703,2023
11707,2016
11711,2020
11715,2016
11719,1995
11723,1971
11727,1968
11731,1963
11735,1943
11739,1938
11743,1949
11747,1957
11751,1954
11755,1941
11759,1936
11763,1943
11767,1955
11771,1950
11775,1939
11779,1943
11783,1950
11787,1948
11791,1942
11795,1946
11799,1931
11803,1829
11807,1698
11811,1680
11815,1937
11819,2517
11823,3363
11827,4095
11831,4095
11835,4095
11839,3493
11843,2652
11847,2166
11851,1977
11855,1943
11859,1937
11863,1936
11867,1917
11871,1886
11875,1860
11879,1858
11883,1856
11887,1845
11891,1840
11895,1846
11899,1854
11903,1851
11907,1843
11911,1853
11915,1865
11919,1863
11923,1872
11927,1885
11931,1889
11935,1882
11939,1873
11943,1881
11947,1902
11951,1911
11955,1911
11959,1919
11963,1927
11967,1931
11971,1924
11975,1935
11979,1951
11983,1969
11987,1973
11991,1974
11995,1993
11999,2007
12003,2009
12007,2013
12011,2032
12015,2063
12019,2071
12023,2075
12027,2097
12031,2122
12035,2135
12039,2146
12043,2174
12047,2187
12051,2209
12055,2211
12059,2223
12063,2247
12067,2259
12071,2256
12075,2258
12079,2273
12083,2269
12087,2243
12091,2203
12095,2173
12099,2128
12103,2067
12107,2001
12111,1966
12115,1932
12119,1889
12123,1850
12127,1838
12131,1833
12135,1814
12139,1793
12143,1789
12147,1799
12151,1792
12155,1786
12159,1787
12163,1793
12167,1803
12171,1795
12175,1799
12179,1808
12183,1810
12187,1808
12191,1807
12195,1819
12199,1825
12203,1825
12207,1819
12211,1827
12215,1831
12219,1839
12223,1831
12227,1840
12231,1847
12235,1846
12239,1840
12243,1841
12247,1843
12251,1845
12255,1845
12259,1851
12263,1858
12267,1861
12271,1849
12275,1854
12279,1863
12283,1866
12287,1861
12291,1856
12295,1865
12299,1872
12303,1863
12307,1817
12311,1870
12315,1873
12319,1867
12323,1823
12327,1865
12331,1887
12335,1875
12339,1863
12343,1883
12347,1873
12351,1887
12355,1874
12359,1869
12363,1876
12367,1866
12371,1872
12375,1868
12379,1882
12383,1893
12387,1890
12391,1891
12395,1898
12399,1899
12403,1898
12407,1893
12411,1903
12415,1905
12419,1904
12423,1903
12427,1904
12431,1906
12435,1904
12439,1898
12443,1903
12447,1916
12451,1910
12455,1905
12459,1904
12463,1920
12467,1922
12471,1911
12475,1920
12479,1931
12483,1931
12487,1918
12491,1921
12495,1921
12499,1931
12503,1922
12507,1923
12511,1934
12515,1937
12519,1936
12523,1924
12527,1931
12531,1947
12535,1936
12539,1933
12543,1937
12547,1949
12551,1946
12555,1936
12559,1942
12563,1942
12567,1950
12571,1945
12575,1951
12579,1968
12583,1968
12587,1963
12591,1958
12595,1968
12599,1969
12603,1966
12607,1959
12611,1962
12615,1968
12619,1965
12623,1955
12627,1964
12631,1971
12635,1968
12639,1963
12643,1969
12647,1979
12651,1977
12655,1968
12659,1968
12663,1981
12667,1981
12671,1973
12675,1983
12679,1981
12683,1981
12687,1982
12691,2000
12695,2034
12699,2047
12703,2054
12707,2055
12711,2065
12715,2067
12719,2047
12723,2028
12727,2027
12731,2023
12735,2000
12739,1976
12743,1978
12747,1987
12751,1984
12755,1975
12759,1978
12763,1989
12767,1990
12771,1984
12775,1977
12779,1987
12783,1985
12787,1978
12791,1979
12795,1986
12799,1998
12803,1967
12807,1858
12811,1734
12815,1709
12819,1965
12823,2605
12827,3582
12831,4095
12835,4095
12839,4095
12843,4095
12847,3344
12851,2518
12855,2070
12859,1939
12863,1938
12867,1940
12871,1920
12875,1895
12879,1875
12883,1859
12887,1841
12891,1837
12895,1840
12899,1840
12903,1837
12907,1827
12911,1840
12915,1851
12919,1853
12923,1850
12927,1861
12931,1863
12935,1866
12939,1865
12943,1870
12947,1881
12951,1882
12955,1881
12959,1886
12963,1904
12967,1905
12971,1901
12975,1911
12979,1923
12983,1931
12987,1927
12991,1931
12995,1945
12999,1959
13003,1958
13007,1966
13011,1984
13015,2000
13019,2008
13023,2014
13027,2032
13031,2059
13035,2069
13039,2088
13043,2114
13047,2143
13051,2155
13055,2165
13059,2189
13063,2208
13067,2224
13071,2229
13075,2247
13079,2267
13083,2272
13087,2276
13091,2262
13095,2247
13099,2208
13103,2157
13107,2102
13111,2060
13115,2010
13119,1959
13123,1909
13127,1886
13131,1869
13135,1846
13139,1827
13143,1829
13147,1824
13151,1810
13155,1805
13159,1810
13163,1815
13167,1813
13171,1808
13175,1808
13179,1818
13183,1824
13187,1811
13191,1813
13195,1824
13199,1822
13203,1815
13207,1814
13211,1826
13215,1833
13219,1826
13223,1827
13227,1836
13231,1845
13235,1842
13239,1840
13243,1841
13247,1851
13251,1850
13255,1852
13259,1849
13263,1857
13267,1868
13271,1859
13275,1854
13279,1867
13283,1851
13287,1860
13291,1856
13295,1857
13299,1860
13303,1876
13307,1897
13311,1904
13315,1872
13319,1863
13323,1861
13327,1869
13331,1872
13335,1869
13339,1856
13343,1869
13347,1875
13351,1871
13355,1866
13359,1875
13363,1887
13367,1883
13371,1872
13375,1873
13379,1879
13383,1884
13387,1878
13391,1877
13395,1886
13399,1892
13403,1889
13407,1891
13411,1902
13415,1904
13419,1895
13423,1903
13427,1901
13431,1911
13435,1909
13439,1899
13443,1904
13447,1920
13451,1916
13455,1905
13459,1910
13463,1920
13467,1919
13471,1905
13475,1908
13479,1913
13483,1919
13487,1907
13491,1906
13495,1919
13499,1920
13503,1915
13507,1915
13511,1923
13515,1927
13519,1923
13523,1916
13527,1923
13531,1927
13535,1920
13539,1920
13543,1926
13547,1934
13551,1936
13555,1921
13559,1922
13563,1936
13567,1931
13571,1921
13575,1925
13579,1936
13583,1936
13587,1927
13591,1937
13595,1947
13599,1943
13603,1937
13607,1936
13611,1941
13615,1950
13619,1943
13623,1939
13627,1953
13631,1959
13635,1953
13639,1945
13643,1951
13647,1957
13651,1950
13655,1941
13659,1947
13663,1957
13667,1956
13671,1944
13675,1947
13679,1953
13683,1959
13687,1947
13691,1952
13695,1961
13699,1963
13703,1957
13707,1954
13711,1962
13715,1967
13719,1955
13723,1949
13727,1965
13731,1968
13735,1961
13739,1951
13743,1963
13747,1971
13751,1968
13755,1958
13759,1963
13763,1971
13767,1997
13771,2011
13775,2029
13779,2037
13783,2043
13787,2034
13791,2037
13795,2038
13799,2032
13803,2006
13807,1987
13811,1980
13815,1968
13819,1955
13823,1957
13827,1965
13831,1974
13835,1968
13839,1961
13843,1968
13847,1975
13851,1968
13855,1963
13859,1968
13863,1977
13867,1969
13871,1953
13875,1963
13879,1967
13883,1913
13887,1781
13891,1651
13895,1697
13899,2117
13903,2877
13907,4095
13911,4095
13915,4095
13919,4095
13923,4095
13927,3231
13931,2432
13935,2004
13939,1899
13943,1903
13947,1909
13951,1885
13955,1849
13959,1836
13963,1825
13967,1813
13971,1808
13975,1806
13979,1811
13983,1814
13987,1804
13991,1808
13995,1821
13999,1819
14003,1823
14007,1827
14011,1840
14015,1847
14019,1844
14023,1840
14027,1846
14031,1859
14035,1855
14039,1850
14043,1867
14047,1872
14051,1872
14055,1874
14059,1890
14063,1904
14067,1907
14071,1907
14075,1918
14079,1931
14083,1937
14087,1937
14091,1955
14095,1971
14099,1987
14103,1997
14107,2011
14111,2042
14115,2064
14119,2074
14123,2084
14127,2114
14131,2135
14135,2151
14139,2164
14143,2189
14147,2210
14151,2221
14155,2223
14159,2240
14163,2256
14167,2259
14171,2240
14175,2215
14179,2187
14183,2143
14187,2089
14191,2038
14195,1997
14199,1951
14203,1904
14207,1872
14211,1851
14215,1835
14219,1810
14223,1802
14227,1790
14231,1803
14235,1801
14239,1783
14243,1831
14247,1811
14251,1794
14255,1801
14259,1805
14263,1808
14267,1806
14271,1806
14275,1811
14279,1814
14283,1810
14287,1810
14291,1809
14295,1818
14299,1833
14303,1822
14307,1825
14311,1837
14315,1837
14319,1840
14323,1837
14327,1842
14331,1852
14335,1842
14339,1839
14343,1851
14347,1849
14351,1850
14355,1840
14359,1851
14363,1860
14367,1862
14371,1849
14375,1857
14379,1866
14383,1864
14387,1863
14391,1866
14395,1870
14399,1872
14403,1866
14407,1863
14411,1867
14415,1872
14419,1859
14423,1858
14427,1869
14431,1872
14435,1866
14439,1857
14443,1871
14447,1872
14451,1877
14455,1869
14459,1879
14463,1879
14467,1873
14471,1871
14475,1872
14479,1883
14483,1879
14487,1881
14491,1879
14495,1889
14499,1897
14503,1883
14507,1887
14511,1903
14515,1900
14519,1897
14523,1889
14527,1901
14531,1904
14535,1901
14539,1898
14543,1904
14547,1915
14551,1905
14555,1902
14559,1910
14563,1914
14567,1906
14571,1900
14575,1905
14579,1919
14583,1920
14587,1909
14591,1908
14595,1915
14599,1911
14603,1919
14607,1919
14611,1929
14615,1930
14619,1914
14623,1919
14627,1925
14631,1931
14635,1923
14639,1919
14643,1930
14647,1936
14651,1929
14655,1929
14659,1934
14663,1939
14667,1933
14671,1927
14675,1929
14679,1941
14683,1942
14687,1933
14691,1934
14695,1949
14699,1950
14703,1940
14707,1941
14711,1956
14715,1951
14719,1941
14723,1943
14727,1955
14731,1966
14735,1963
14739,1955
14743,1961
14747,1966
14751,1957
14755,1949
14759,1963
14763,1972
14767,1967
14771,1958
14775,1961
14779,1968
14783,1968
14787,1962
14791,1963
14795,1968
14799,1970
14803,1979
14807,2011
14811,2039
14815,2042
14819,2034
14823,2033
14827,2047
14831,2045
14835,2029
14839,2009
14843,2007
14847,1991
14851,1969
14855,1962
14859,1969
14863,1969
14867,1968
14871,1967
14875,1968
14879,1979
14883,1971
14887,1962
14891,1962
14895,1971
14899,1963
14903,1957
14907,1968
14911,1971
14915,1921
14919,1795
14923,1680
14927,1717
14931,2094
14935,2785
14939,3894
14943,4095
14947,4095
14951,4095
14955,3807
14959,2832
14963,2238
14967,1993
14971,1941
14975,1951
14979,1941
14983,1920
14987,1877
14991,1857
14995,1851
14999,1850
15003,1840
15007,1841
15011,1843
15015,1841
15019,1840
15023,1834
15027,1840
15031,1856
15035,1857
15039,1861
15043,1872
15047,1882
15051,1871
15055,1863
15059,1877
15063,1895
15067,1891
15071,1891
15075,1901
15079,1910
15083,1904
15087,1907
15091,1918
15095,1939
15099,1945
15103,1939
15107,1955
15111,1973
15115,1983
15119,1982
15123,1989
15127,2011
15131,2029
15135,2032
15139,2039
15143,2067
15147,2089
15151,2099
15155,2116
15159,2143
15163,2169
15167,2179
15171,2186
15175,2205
15179,2226
15183,2235
15187,2230
15191,2250
15195,2263
15199,2258
15203,2239
15207,2222
15211,2192
15215,2148
15219,2093
15223,2038
15227,1998
15231,1951
15235,1904
15239,1873
15243,1859
15247,1840
15251,1835
15255,1820
15259,1826
15263,1817
15267,1803
15271,1804
15275,1808
15279,1803
15283,1830
15287,1837
15291,1821
15295,1801
15299,1825
15303,1815
15307,1814
15311,1829
15315,1838
15319,1831
15323,1831
15327,1842
15331,1850
15335,1835
15339,1833
15343,1849
15347,1857
15351,1856
15355,1853
15359,1860
15363,1867
15367,1851
15371,1847
15375,1856
15379,1870
15383,1869
15387,1861
15391,1862
15395,1872
15399,1872
15403,1869
15407,1871
15411,1872
15415,1873
15419,1861
15423,1867
15427,1879
15431,1887
15435,1878
15439,1875
15443,1881
15447,1884
15451,1872
15455,1872
15459,1892
15463,1900
15467,1887
15471,1883
15475,1891
15479,1893
15483,1893
15487,1882
15491,1889
15495,1889
15499,1888
15503,1877
15507,1887
15511,1901
15515,1903
15519,1893
15523,1893
15527,1904
15531,1904
15535,1899
15539,1902
15543,1913
15547,1923
15551,1917
15555,1904
15559,1914
15563,1919
15567,1919
15571,1913
15575,1922
15579,1931
15583,1920
15587,1910
15591,1919
15595,1929
15599,1926
15603,1917
15607,1922
15611,1937
15615,1941
15619,1932
15623,1929
15627,1937
15631,1936
15635,1936
15639,1929
15643,1943
15647,1943
15651,1939
15655,1936
15659,1951
15663,1964
15667,1953
15671,1943
15675,1943
15679,1953
15683,1950
15687,1946
15691,1951
15695,1961
15699,1955
15703,1943
15707,1945
15711,1968
15715,1959
15719,1951
15723,1959
15727,1968
15731,1968
15735,1957
15739,1957
15743,1968
15747,1968
15751,1963
15755,1958
15759,1968
15763,1975
15767,1967
15771,1957
15775,1965
15779,1982
15783,1994
15787,2013
15791,2032
15795,2046
15799,2042
15803,2041
15807,2036
15811,2032
15815,2010
15819,1989
15823,1984
15827,1984
15831,1965
15835,1959
15839,1963
15843,1974
15847,1979
15851,1968
15855,1963
15859,1968
15863,1975
15867,1971
15871,1967
15875,1978
15879,1982
15883,1980
15887,1974
15891,1954
15895,1887
15899,1776
15903,1728
15907,1918
15911,2384
15915,3058
15919,4080
15923,4095
15927,4031
15931,3197
15935,2518
15939,2128
15943,2002
15947,1993
15951,1984
15955,1968
15959,1957
15963,1939
15967,1907
15971,1891
15975,1893
15979,1895
15983,1887
15987,1874
15991,1889
15995,1894
15999,1890
16003,1886
16007,1893
16011,1905
16015,1904
16019,1903
16023,1907
16027,1923
16031,1925
16035,1922
16039,1930
16043,1937
16047,1945
16051,1936
16055,1945
16059,1967
16063,1971
16067,1968
16071,1971
16075,1988
16079,2001
16083,2000
16087,2005
16091,2022
16095,2039
16099,2047
16103,2054
16107,2069
16111,2095
16115,2103
16119,2108
16123,2125
16127,2148
16131,2173
16135,2183
16139,2205
16143,2226
16147,2241
16151,2241
16155,2254
16159,2268
16163,2287
16167,2275
16171,2279
16175,2288
16179,2278
16183,2254
16187,2207
16191,2163
16195,2116
16199,2070
16203,1997
16207,1968
16211,1958
16215,1893
16219,1867
16223,1850
16227,1837
16231,1818
16235,1809
16239,1821
16243,1823
16247,1829
16251,1808
16255,1808
16259,1817
16263,1825
16267,1809
16271,1809
16275,1825
16279,1830
16283,1825
16287,1823
16291,1834
16295,1841
16299,1840
16303,1828
16307,1834
16311,1846
16315,1840
16319,1838
16323,1849
16327,1857
16331,1861
16335,1853
16339,1849
16343,1855
16347,1860
16351,1853
16355,1851
16359,1872
16363,1869
16367,1860
16371,1862
16375,1871
16379,1872
16383,1862
16387,1857
16391,1872
16395,1879
16399,1875
16403,1862
16407,1859
16411,1872
16415,1871
16419,1865
16423,1862
16427,1874
16431,1871
16435,1858
16439,1857
16443,1873
16447,1871
16451,1865
16455,1866
16459,1877
16463,1877
16467,1872
16471,1868
16475,1882
16479,1889
16483,1878
16487,1877
16491,1889
16495,1893
16499,1886
16503,1879
16507,1895
16511,1901
16515,1897
16519,1892
16523,1901
16527,1904
16531,1904
16535,1894
16539,1899
16543,1907
16547,1907
16551,1902
16555,1901
16559,1905
16563,1907
16567,1905
16571,1906
16575,1925
16579,1922
16583,1920
16587,1917
16591,1921
16595,1934
16599,1921
16603,1914
16607,1920
16611,1936
16615,1936
16619,1923
16623,1926
16627,1938
16631,1934
16635,1922
16639,1934
16643,1938
16647,1939
16651,1935
16655,1931
16659,1945
16663,1949
16667,1945
16671,1941
16675,1941
16679,1949
16683,1945
16687,1937
16691,1949
16695,1959
16699,1954
16703,1941
16707,1957
16711,1962
16715,1958
16719,1949
16723,1965
16727,1970
16731,1968
16735,1954
16739,1951
16743,1974
16747,1999
16751,2011
16755,2016
16759,2029
16763,2033
16767,2039
16771,2033
16775,2030
16779,2021
16783,2001
16787,1990
16791,1984
16795,1975
16799,1959
16803,1948
16807,1958
16811,1961
16815,1965
16819,1961
16823,1963
16827,1967
16831,1962
16835,1953
16839,1949
16843,1958
16847,1968
16851,1952
16855,1903
16859,1802
16863,1695
16867,1758
16871,2176
16875,2907
16879,4059
16883,4095
16887,4095
16891,4095
16895,3839
16899,2839
16903,2224
16907,1967
16911,1931
16915,1921
16919,1907
16923,1888
16927,1864
16931,1845
16935,1821
16939,1817
16943,1822
16947,1813
16951,1811
16955,1807
16959,1818
16963,1823
16967,1818
16971,1811
16975,1828
16979,1841
16983,1842
16987,1840
16991,1849
16995,1853
16999,1858
17003,1855
17007,1862
17011,1872
17015,1867
17019,1862
17023,1874
17027,1886
17031,1892
17035,1891
17039,1903
17043,1915
17047,1923
17051,1921
17055,1936
17059,1952
17063,1959
17067,1957
17071,1969
17075,1995
17079,2011
17083,2025
17087,2032
17091,2067
17095,2091
17099,2100
17103,2122
17107,2135
17111,2160
17115,2185
17119,2171
17123,2191
17127,2249
17131,2240
17135,2203
17139,2252
17143,2247
17147,2229
17151,2175
17155,2128
17159,2102
17163,2023
17167,1984
17171,1947
17175,1919
17179,1897
17183,1859
17187,1837
17191,1834
17195,1827
17199,1809
17203,1802
17207,1806
17211,1811
17215,1809
17219,1811
17223,1819
17227,1833
17231,1830
17235,1819
17239,1831
17243,1833
17247,1827
17251,1820
17255,1824
17259,1833
17263,1835
17267,1829
17271,1829
17275,1838
17279,1841
17283,1840
17287,1840
17291,1855
17295,1856
17299,1850
17303,1845
17307,1856
17311,1851
17315,1854
17319,1847
17323,1858
17327,1872
17331,1864
17335,1852
17339,1856
17343,1871
17347,1870
17351,1863
17355,1869
17359,1877
17363,1882
17367,1872
17371,1872
17375,1885
17379,1891
17383,1882
17387,1872
17391,1888
17395,1894
17399,1883
17403,1885
17407,1888
17411,1897
17415,1889
17419,1887
17423,1895
17427,1904
17431,1893
17435,1895
17439,1891
17443,1904
17447,1903
17451,1893
17455,1894
17459,1904
17463,1909
17467,1900
17471,1899
17475,1904
17479,1914
17483,1904
17487,1899
17491,1909
17495,1918
17499,1914
17503,1910
17507,1915
17511,1925
17515,1921
17519,1908
17523,1920
17527,1933
17531,1927
17535,1911
17539,1925
17543,1926
17547,1924
17551,1918
17555,1928
17559,1938
17563,1937
17567,1934
17571,1935
17575,1946
17579,1945
17583,1939
17587,1937
17591,1943
17595,1955
17599,1951
17603,1942
17607,1951
17611,1964
17615,1957
17619,1949
17623,1955
17627,1954
17631,1959
17635,1952
17639,1959
17643,1967
17647,1967
17651,1958
17655,1967
17659,1969
17663,1968
17667,1958
17671,1965
17675,1975
17679,1976
17683,1966
17687,1968
17691,1968
17695,1974
17699,1968
17703,1968
17707,1973
17711,1982
17715,1983
17719,1974
17723,1968
17727,1973
17731,1983
17735,2002
17739,2034
17743,2053
17747,2057
17751,2043
17755,2043
17759,2056
17763,2046
17767,2029
17771,2014
17775,2003
17779,1986
17783,1965
17787,1963
17791,1977
17795,1984
17799,1975
17803,1972
17807,1975
17811,1981
17815,1975
17819,1971
17823,1978
17827,1983
17831,1979
17835,1975
17839,1962
17843,1884
17847,1737
17851,1660
17855,1870
17859,2487
17863,3421
17867,4095
17871,4095
17875,4095
17879,4095
17883,3939
17887,2880
17891,2229
17895,1957
17899,1905
17903,1915
17907,1910
17911,1890
17915,1852
17919,1823
17923,1813
17927,1821
17931,1811
17935,1803
17939,1806
17943,1814
17947,1815
17951,1815
17955,1818
17959,1830
17963,1831
17967,1831
17971,1834
17975,1839
17979,1845
17983,1840
17987,1839
17991,1853
17995,1858
17999,1854
18003,1852
18007,1865
18011,1881
18015,1878
18019,1877
18023,1891
18027,1902
18031,1903
18035,1904
18039,1920
18043,1937
18047,1947
18051,1968
18055,1962
18059,1969
18063,1975
18067,1953
18071,2022
18075,2069
18079,2082
18083,2090
18087,2106
18091,2129
18095,2131
18099,2170
18103,2208
18107,2197
18111,2239
18115,2224
18119,2235
18123,2247
18127,2256
18131,2240
18135,2213
18139,2176
18143,2147
18147,2096
18151,2032
18155,1995
18159,1963
18163,1929
18167,1891
18171,1861
18175,1855
18179,1850
18183,1838
18187,1834
18191,1838
18195,1843
18199,1835
18203,1831
18207,1837
18211,1842
18215,1838
18219,1840
18223,1840
18227,1853
18231,1843
18235,1850
18239,1853
18243,1858
18247,1866
18251,1850
18255,1853
18259,1860
18263,1863
18267,1849
18271,1853
18275,1869
18279,1872
18283,1862
18287,1856
18291,1867
18295,1867
18299,1860
18303,1858
18307,1863
18311,1875
18315,1874
18319,1871
18323,1875
18327,1879
18331,1874
18335,1872
18339,1881
18343,1888
18347,1890
18351,1879
18355,1881
18359,1893
18363,1889
18367,1891
18371,1889
18375,1906
18379,1904
18383,1895
18387,1899
18391,1903
18395,1905
18399,1902
18403,1891
18407,1899
18411,1901
18415,1896
18419,1890
18423,1894
18427,1904
18431,1895
18435,1897
18439,1904
18443,1911
18447,1914
18451,1904
18455,1906
18459,1911
18463,1909
18467,1903
18471,1903
18475,1907
18479,1909
18483,1901
18487,1909
18491,1923
18495,1924
18499,1917
18503,1911
18507,1916
18511,1922
18515,1910
18519,1910
18523,1923
18527,1931
18531,1919
18535,1917
18539,1919
18543,1925
18547,1927
18551,1917
18555,1920
18559,1935
18563,1936
18567,1933
18571,1931
18575,1938
18579,1946
18583,1937
18587,1936
18591,1946
18595,1941
18599,1936
18603,1934
18607,1946
18611,1952
18615,1949
18619,1947
18623,1954
18627,1955
18631,1946
18635,1942
18639,1949
18643,1956
18647,1954
18651,1951
18655,1963
18659,1969
18663,1958
18667,1943
18671,1969
18675,2003
18679,2025
18683,2025
18687,2022
18691,2041
18695,2047
18699,2032
18703,2019
18707,2013
18711,2001
18715,1978
18719,1957
18723,1952
18727,1962
18731,1954
18735,1953
18739,1958
18743,1969
18747,1965
18751,1952
18755,1957
18759,1966
18763,1967
18767,1953
18771,1962
18775,1968
18779,1942
18783,1839
18787,1707
18791,1674
18795,1936
18799,2555
18803,3502
18807,4095
18811,4095
18815,4095
18819,4095
18823,3308
18827,2495
18831,2047
18835,1905
18839,1904
18843,1911
18847,1893
18851,1857
18855,1828
18859,1822
18863,1803
18867,1796
18871,1798
18875,1808
18879,1801
18883,1790
18887,1795
18891,1811
18895,1808
18899,1813
18903,1814
18907,1827
18911,1840
18915,1837
18919,1824
18923,1835
18927,1841
18931,1843
18935,1842
18939,1855
18943,1862
18947,1863
18951,1860
18955,1867
18959,1885
18963,1893
18967,1885
18971,1893
18975,1909
18979,1925
18983,1920
18987,1936
18991,1956
18995,1973
18999,1979
19003,1982
19007,2000
19011,2043
19015,2073
19019,2064
19023,2062
19027,2107
19031,2128
19035,2138
19039,2160
19043,2201
19047,2189
19051,2192
19055,2214
19059,2225
19063,2233
19067,2222
19071,2199
19075,2181
19079,2138
19083,2083
19087,2031
19091,1995
19095,1957
19099,1913
19103,1872
19107,1853
19111,1836
19115,1811
19119,1803
19123,1802
19127,1809
19131,1803
19135,1790
19139,1799
19143,1806
19147,1807
19151,1794
19155,1803
19159,1823
19163,1821
19167,1808
19171,1810
19175,1827
19179,1821
19183,1814
19187,1821
19191,1829
19195,1839
19199,1831
19203,1826
19207,1835
19211,1840
19215,1837
19219,1826
19223,1840
19227,1846
19231,1846
19235,1839
19239,1840
19243,1846
19247,1845
19251,1840
19255,1850
19259,1859
19263,1856
19267,1854
19271,1863
19275,1871
19279,1872
19283,1860
19287,1862
19291,1878
19295,1881
19299,1871
19303,1871
19307,1888
19311,1890
19315,1875
19319,1871
19323,1874
19327,1887
19331,1881
19335,1879
19339,1885
19343,1899
19347,1904
19351,1897
19355,1902
19359,1904
19363,1903
19367,1890
19371,1886
19375,1904
19379,1909
19383,1902
19387,1899
19391,1904
19395,1907
19399,1903
19403,1894
19407,1907
19411,1915
19415,1909
19419,1904
19423,1914
19427,1913
19431,1910
19435,1903
19439,1909
19443,1917
19447,1923
19451,1915
19455,1919
19459,1930
19463,1930
19467,1921
19471,1929
19475,1936
19479,1936
19483,1931
19487,1931
19491,1939
19495,1935
19499,1924
19503,1923
19507,1936
19511,1937
19515,1934
19519,1934
19523,1936
19527,1936
19531,1941
19535,1949
19539,1983
19543,2005
19547,2001
19551,2001
19555,2016
19559,2025
19563,2012
19567,1996
19571,1977
19575,1973
19579,1967
19583,1946
19587,1937
19591,1955
19595,1952
19599,1943
19603,1936
19607,1951
19611,1966
19615,1955
19619,1947
19623,1955
19627,1954
19631,1947
19635,1947
19639,1955
19643,1939
19647,1854
19651,1733
19655,1726
19659,1978
19663,2525
19667,3301
19671,4095
19675,4095
19679,4095
19683,3237
19687,2496
19691,2098
19695,1968
19699,1950
19703,1954
19707,1943
19711,1930
19715,1899
19719,1876
19723,1877
19727,1876
19731,1867
19735,1852
19739,1856
19743,1867
19747,1866
19751,1858
19755,1869
19759,1874
19763,1882
19767,1872
19771,1885
19775,1901
19779,1901
19783,1899
19787,1904
19791,1919
19795,1929
19799,1925
19803,1921
19807,1934
19811,1943
19815,1946
19819,1955
19823,1979
19827,1983
19831,1979
19835,1970
19839,1998
19843,2013
19847,2020
19851,2028
19855,2039
19859,2062
19863,2077
19867,2085
19871,2107
19875,2126
19879,2141
19883,2147
19887,2167
19891,2195
19895,2209
19899,2210
19903,2224
19907,2237
19911,2256
19915,2256
19919,2257
19923,2267
19927,2265
19931,2240
19935,2211
19939,2175
19943,2139
19947,2094
19951,2023
19955,1991
19959,1963
19963,1921
19967,1871
19971,1883
19975,1854
19979,1850
19983,1834
19987,1823
19991,1828
19995,1826
